1000000
1996057
2992115
3983258
4967550
5943078
6907966
7860380
8798533
9720697
10625206
11510462
12374947
13217220
14035932
14829825
15623717
16391631
17132508
17845397
18558287
19242349
19896858
20551366
21175711
21769402
22363093
22925759
23488426
24019821
24519821
25019821
25488426
25957030
26425635
26862969
27300302
27706611
28112921
28488576
28864231
29239886
29585377
29930869
30276360
30592298
30908236
31224174
31511284
31798394
32085505
32344628
32603751
32862874
33121997
33354084
33586170
33818257
34050344
34256451
34462558
34668666
34874773
35080881
35262169
35443457
35624745
35806033
35987321
36168609
36326335
36484061
36641788
36799514
36957241
37114967
37250483
37385999
37521514
37657030
37792546
37928061
38063577
38178320
38293064
38407807
38522551
38637294
38752037
38866781
38981524
39096267
39196267
39296267
39396267
39496267
39596267
39696267
39796267
39896267
39996267
40096267
40196267
40296267
40396267
40496267
40596267
40696267
40796267
40896267
40996267
41096267
41196267
41296267
41396267
41496267
41596267
41696267
41796267
41896267
41996267
42096267
42196267
42296267
42396267
42496267
42596267
42696267
42796267
42896267
42996267
43096267
43196267
43296267
43396267
43496267
43596267
43696267
43796267
43896267
43996267
44096267
44196267
44296267
44396267
44496267
44596267
44696267
44796267
44896267
44996267
45096267
45196267
45296267
45396267
45496267
45596267
45696267
45796267
45896267
45996267
46096267
46196267
46296267
46396267
46496267
46596267
46696267
46796267
46896267
46996267
47096267
47196267
47296267
47396267
47496267
47596267
47696267
47796267
47896267
47996267
48096267
48196267
48296267
48396267
48496267
48596267
48696267
48796267
48896267
48996267
49096267
49196267
49296267
49396267
49496267
49596267
49696267
49796267
49896267
49996267
50096267
50196267
50296267
50396267
50496267
50596267
50696267
50796267
50896267
50996267
51096267
51196267
51296267
51396267
51496267
51596267
51696267
51796267
51896267
51996267
52096267
52196267
52296267
52396267
52496267
52596267
52696267
52796267
52896267
52996267
53096267
53196267
53296267
53396267
53496267
53596267
53696267
53796267
53896267
53996267
54096267
54196267
54296267
54396267
54496267
54596267
54696267
54796267
54896267
54996267
55096267
55196267
55296267
55396267
55496267
55596267
55696267
55796267
55896267
55996267
56096267
56196267
56296267
56396267
56496267
56596267
56696267
56796267
56896267
56996267
57096267
57196267
57296267
57396267
57496267
57596267
57696267
57796267
57896267
57996267
58096267
58196267
58296267
58396267
58496267
58596267
58696267
58796267
58896267
58996267
59096267
59196267
59296267
59396267
59496267
59596267
59696267
59796267
59896267
59996267
60096267
60211011
60325754
60440498
60555241
60669984
60784728
60899471
61014214
61149730
61285246
61420762
61556277
61691793
61827309
61962824
62098340
62256066
62413793
62571519
62729246
62886972
63044699
63225987
63407275
63588563
63769851
63951139
64132427
64338534
64544641
64750749
64956856
65162964
65395050
65627137
65859223
66091310
66350433
66609556
66868679
67127803
67414913
67702023
67989134
68276244
68592182
68908119
69224057
69569549
69915040
70260532
70636187
71011842
71418151
71824461
72230770
72668103
73105437
73574041
74042646
74542646
75042646
75574041
76105437
76668103
77230770
77824461
78418151
79042496
79697005
80351513
81035575
81748465
82461355
83202232
83970145
84738058
85531951
86350663
87192936
88057421
88942677
89827934
90732443
91654607
92592760
93545173
94510062
95485590
96469881
97461025
98457082
99456096
100456096
101455109
102451167
103442310
104426602
105402130
106367018
107319432
108257585
109179749
110084258
110969514
111854771
112719255
113561529
114380241
115174133
115942047
116709960
117450837
118163727
118847789
119531851
120186360
120810705
121435049
122028740
122591407
123154073
123685469
124216864
124716864
125216864
125685469
126154073
126591407
127028740
127435049
127841359
128247668
128623323
128998978
129374633
129720125
130065616
130381554
130697492
131013430
131300540
131587650
131874761
132161871
132420994
132680117
132939240
133198364
133430450
133662537
133894623
134126710
134332817
134538925
134745032
134951139
135157247
135338535
135519823
135701111
135882399
136063687
136221413
136379140
136536866
136694593
136852319
137010046
137145561
137281077
137416593
137552108
137687624
137823140
137958655
138094171
138208914
138323658
138438401
138553145
138667888
138782631
138897375
139012118
139112118
139212118
139312118
139412118
139512118
139612118
139712118
139812118
139912118
140012118
140112118
140212118
140312118
140412118
140512118
140612118
140712118
140812118
140912118
141012118
141112118
141212118
141312118
141412118
141512118
141612118
141712118
141812118
141912118
142012118
142112118
142212118
142312118
142412118
142512118
142612118
142712118
142812118
142912118
143012118
143112118
143212118
143312118
143412118
143512118
143612118
143712118
143812118
143912118
144012118
144112118
144212118
144312118
144412118
144512118
144612118
144712118
144812118
144912118
145012118
145112118
145212118
145312118
145412118
145512118
145612118
145712118
145812118
145912118
146012118
146112118
146212118
146312118
146412118
146512118
146612118
146712118
146812118
146912118
147012118
147112118
147212118
147312118
147412118
147512118
147612118
147712118
147812118
147912118
148012118
148112118
148212118
148312118
148412118
148512118
148612118
148712118
148812118
148912118
149012118
149112118
149212118
149312118
149412118
149512118
149612118
149712118
149812118
149912118
150012118
150112118
150212118
150312118
150412118
150512118
150612118
150712118
150812118
150912118
151012118
151112118
151212118
151312118
151412118
151512118
151612118
151712118
151812118
151912118
152012118
152112118
152212118
152312118
152412118
152512118
152612118
152712118
152812118
152912118
153012118
153112118
153212118
153312118
153412118
153512118
153612118
153712118
153812118
153912118
154012118
154112118
154212118
154312118
154412118
154512118
154612118
154712118
154812118
154912118
155012118
155112118
155212118
155312118
155412118
155512118
155612118
155712118
155812118
155912118
156012118
156112118
156212118
156312118
156412118
156512118
156612118
156712118
156812118
156912118
157012118
157112118
157212118
157312118
157412118
157512118
157612118
157712118
157812118
157912118
158012118
158112118
158212118
158312118
158412118
158512118
158612118
158712118
158812118
158912118
159012118
159112118
159212118
159312118
159412118
159512118
159612118
159712118
159812118
159912118
160012118
160126861
160241605
160356348
160471092
160585835
160700578
160815322
160930065
161044808
161180324
161315840
161451356
161586871
161722387
161857903
161993418
162128934
162286660
162444387
162602113
162759840
162917566
163075293
163256581
163437869
163619157
163800445
163981733
164163021
164369128
164575235
164781343
164987450
165193558
165425644
165657731
165889817
166121904
166381027
166640150
166899273
167158397
167445507
167732617
168019728
168335665
168651603
168967541
169283479
169628970
169974462
170319953
170695608
171071263
171477573
171883882
172290191
172727525
173164858
173633463
174102067
174602067
175102067
175633463
176164858
176727525
177290191
177883882
178477573
179101917
179756426
180410934
181094997
181807886
182520776
183261653
184029566
184823459
185617352
186436064
187278337
188142821
189028078
189932587
190837095
191759259
192697412
193649826
194614714
195590242
196574534
197565678
198561735
199560748
200560748
201559762
202555819
203546963
204531254
205506782
206471671
207424084
208362238
209284402
210188910
211074167
211938651
212803135
213645409
214464121
215258013
216025927
216766804
217507681
218220570
218904632
219588695
220243203
220867548
221491893
222085584
222648250
223210917
223742312
224273708
224773708
225273708
225742312
226210917
226648250
227085584
227491893
227898202
228304512
228680167
229055822
229401313
229746805
230092296
230408234
230724172
231040110
231327220
231614330
231901441
232188551
232447674
232706797
232965920
233225044
233457130
233689217
233921303
234153390
234359497
234565605
234771712
234977820
235183927
235365215
235546503
235727791
235909079
236090367
236248093
236405820
236563546
236721273
236878999
237036726
237172241
237307757
237443273
237578788
237714304
237849820
237985335
238120851
238235595
238350338
238465081
238579825
238694568
238809311
238924055
239038798
239138798
239238798
239338798
239438798
239538798
239638798
239738798
239838798
239938798
240038798
240138798
240238798
240338798
240438798
240538798
240638798
240738798
240838798
240938798
241038798
241138798
241238798
241338798
241438798
241538798
241638798
241738798
241838798
241938798
242038798
242138798
242238798
242338798
242438798
242538798
242638798
242738798
242838798
242938798
243038798
243138798
243238798
243338798
243438798
243538798
243638798
243738798
243838798
243938798
244038798
244138798
244238798
244338798
244438798
244538798
244638798
244738798
244838798
244938798
245038798
245138798
245238798
245338798
245438798
245538798
245638798
245738798
245838798
245938798
246038798
246138798
246238798
246338798
246438798
246538798
246638798
246738798
246838798
246938798
247038798
247138798
247238798
247338798
247438798
247538798
247638798
247738798
247838798
247938798
248038798
248138798
248238798
248338798
248438798
248538798
248638798
248738798
248838798
248938798
249038798
249138798
249238798
249338798
249438798
249538798
249638798
249738798
249838798
249938798
250038798
250138798
250238798
250338798
250438798
250538798
250638798
250738798
250838798
250938798
251038798
251138798
251238798
251338798
251438798
251538798
251638798
251738798
251838798
251938798
252038798
252138798
252238798
252338798
252438798
252538798
252638798
252738798
252838798
252938798
253038798
253138798
253238798
253338798
253438798
253538798
253638798
253738798
253838798
253938798
254038798
254138798
254238798
254338798
254438798
254538798
254638798
254738798
254838798
254938798
255038798
255138798
255238798
255338798
255438798
255538798
255638798
255738798
255838798
255938798
256038798
256138798
256238798
256338798
256438798
256538798
256638798
256738798
256838798
256938798
257038798
257138798
257238798
257338798
257438798
257538798
257638798
257738798
257838798
257938798
258038798
258138798
258238798
258338798
258438798
258538798
258638798
258738798
258838798
258938798
259038798
259138798
259238798
259338798
259438798
259538798
259638798
259738798
259838798
259938798
260038798
260153542
260268285
260383028
260497772
260612515
260727258
260842002
260956745
261071489
261207004
261342520
261478036
261613551
261749067
261884583
262020098
262177825
262335551
262493278
262651004
262808731
262966457
263124183
263305471
263486760
263668048
263849336
264030624
264236731
264442838
264648946
264855053
265061160
265293247
265525334
265757420
265989507
266221593
266480717
266739840
266998963
267258086
267545196
267832307
268119417
268435355
268751293
269067230
269412722
269758213
270103705
270479360
270855015
271230670
271636979
272043289
272480622
272917955
273355289
273823894
274292498
274792498
275292498
275823894
276355289
276917955
277480622
278074313
278698658
279323003
279977511
280632020
281316082
282028971
282769848
283510725
284278639
285072531
285891243
286709955
287552229
288416713
289301970
290206478
291128642
292066795
293019209
293984097
294948985
295924514
296908805
297899949
298896006
299895020
300895020
301894033
302890090
303881234
304865526
305841054
306805942
307758356
308696509
309618673
310523181
311408438
312272922
313115196
313933908
314752620
315546513
316314426
317055303
317768192
318481082
319165144
319819653
320474161
321098506
321692197
322285888
322848554
323411221
323942616
324474011
324974011
325474011
325942616
326411221
326848554
327285888
327692197
328098506
328474161
328849816
329225471
329570963
329916454
330261946
330577884
330893821
331209759
331496869
331783980
332071090
332330213
332589336
332848460
333107583
333339669
333571756
333803843
334035929
334242037
334448144
334654251
334860359
335066466
335247754
335429042
335610330
335791618
335972906
336154194
336311921
336469647
336627373
336785100
336942826
337100553
337236068
337371584
337507100
337642616
337778131
337913647
338049163
338163906
338278649
338393393
338508136
338622880
338737623
338852366
338967110
339081853
339181853
339281853
339381853
339481853
339581853
339681853
339781853
339881853
339981853
340081853
340181853
340281853
340381853
340481853
340581853
340681853
340781853
340881853
340981853
341081853
341181853
341281853
341381853
341481853
341581853
341681853
341781853
341881853
341981853
342081853
342181853
342281853
342381853
342481853
342581853
342681853
342781853
342881853
342981853
343081853
343181853
343281853
343381853
343481853
343581853
343681853
343781853
343881853
343981853
344081853
344181853
344281853
344381853
344481853
344581853
344681853
344781853
344881853
344981853
345081853
345181853
345281853
345381853
345481853
345581853
345681853
345781853
345881853
345981853
346081853
346181853
346281853
346381853
346481853
346581853
346681853
346781853
346881853
346981853
347081853
347181853
347281853
347381853
347481853
347581853
347681853
347781853
347881853
347981853
348081853
348181853
348281853
348381853
348481853
348581853
348681853
348781853
348881853
348981853
349081853
349181853
349281853
349381853
349481853
349581853
349681853
349781853
349881853
349981853
350081853
350181853
350281853
350381853
350481853
350581853
350681853
350781853
350881853
350981853
351081853
351181853
351281853
351381853
351481853
351581853
351681853
351781853
351881853
351981853
352081853
352181853
352281853
352381853
352481853
352581853
352681853
352781853
352881853
352981853
353081853
353181853
353281853
353381853
353481853
353581853
353681853
353781853
353881853
353981853
354081853
354181853
354281853
354381853
354481853
354581853
354681853
354781853
354881853
354981853
355081853
355181853
355281853
355381853
355481853
355581853
355681853
355781853
355881853
355981853
356081853
356181853
356281853
356381853
356481853
356581853
356681853
356781853
356881853
356981853
357081853
357181853
357281853
357381853
357481853
357581853
357681853
357781853
357881853
357981853
358081853
358181853
358281853
358381853
358481853
358581853
358681853
358781853
358881853
358981853
359081853
359181853
359281853
359381853
359481853
359581853
359681853
359781853
359881853
359981853
360081853
360196596
360311340
360426083
360540827
360655570
360770313
360885057
360999800
361114543
361250059
361385575
361521090
361656606
361792122
361927638
362063153
362220880
362378606
362536333
362694059
362851785
363009512
363190800
363372088
363553376
363734664
363915952
364097240
364303347
364509455
364715562
364921669
365127777
365359863
365591950
365824037
366056123
366315246
366574370
366833493
367092616
367379726
367666837
367953947
368241057
368556995
368872933
369188870
369534362
369879853
370225345
370601000
370976655
371352310
371758619
372164929
372602262
373039596
373508200
373976805
374445410
374945410
375445410
375976805
376508200
377070867
377664558
378258248
378882593
379506938
380161447
380845509
381529571
382242461
382983338
383724215
384492128
385286021
386104733
386947006
387789280
388653764
389539021
390443529
391365693
392303846
393256260
394221148
395196676
396180968
397172112
398168169
399167182
400167182
401166196
402162253
403153397
404137688
405113217
406078105
407030518
407968672
408906825
409828989
410733497
411618754
412483238
413325512
414144224
414938117
415732009
416499923
417240799
417953689
418666579
419350641
420005149
420629494
421253839
421847530
422441221
423003887
423535283
424066678
424566678
425066678
425535283
426003887
426441221
426878554
427315887
427722197
428128506
428504161
428879816
429255471
429600963
429946454
430291946
430607884
430923821
431239759
431526869
431813980
432101090
432360213
432619336
432878460
433137583
433369669
433601756
433833842
434065929
434272036
434478144
434684251
434890359
435096466
435277754
435459042
435640330
435821618
436002906
436160632
436318359
436476085
436633812
436791538
436949265
437106991
437242507
437378022
437513538
437649054
437784570
437920085
438055601
438170344
438285088
438399831
438514574
438629318
438744061
438858805
438973548
439088291
439188291
439288291
439388291
439488291
439588291
439688291
439788291
439888291
439988291
440088291
440188291
440288291
440388291
440488291
440588291
440688291
440788291
440888291
440988291
441088291
441188291
441288291
441388291
441488291
441588291
441688291
441788291
441888291
441988291
442088291
442188291
442288291
442388291
442488291
442588291
442688291
442788291
442888291
442988291
443088291
443188291
443288291
443388291
443488291
443588291
443688291
443788291
443888291
443988291
444088291
444188291
444288291
444388291
444488291
444588291
444688291
444788291
444888291
444988291
445088291
445188291
445288291
445388291
445488291
445588291
445688291
445788291
445888291
445988291
446088291
446188291
446288291
446388291
446488291
446588291
446688291
446788291
446888291
446988291
447088291
447188291
447288291
447388291
447488291
447588291
447688291
447788291
447888291
447988291
448088291
448188291
448288291
448388291
448488291
448588291
448688291
448788291
448888291
448988291
449088291
449188291
449288291
449388291
449488291
449588291
449688291
449788291
449888291
449988291
450088291
450188291
450288291
450388291
450488291
450588291
450688291
450788291
450888291
450988291
451088291
451188291
451288291
451388291
451488291
451588291
451688291
451788291
451888291
451988291
452088291
452188291
452288291
452388291
452488291
452588291
452688291
452788291
452888291
452988291
453088291
453188291
453288291
453388291
453488291
453588291
453688291
453788291
453888291
453988291
454088291
454188291
454288291
454388291
454488291
454588291
454688291
454788291
454888291
454988291
455088291
455188291
455288291
455388291
455488291
455588291
455688291
455788291
455888291
455988291
456088291
456188291
456288291
456388291
456488291
456588291
456688291
456788291
456888291
456988291
457088291
457188291
457288291
457388291
457488291
457588291
457688291
457788291
457888291
457988291
458088291
458188291
458288291
458388291
458488291
458588291
458688291
458788291
458888291
458988291
459088291
459188291
459288291
459388291
459488291
459588291
459688291
459788291
459888291
459988291
460088291
460203035
460317778
460432521
460547265
460662008
460776752
460891495
461006238
461141754
461277270
461412785
461548301
461683817
461819332
461954848
462090364
462248090
462405817
462563543
462721270
462878996
463036723
463218011
463399299
463580587
463761875
463943163
464124451
464330558
464536665
464742773
464948880
465154987
465387074
465619161
465851247
466083334
466342457
466601580
466860703
467119826
467406937
467694047
467981158
468268268
468584206
468900143
469216081
469561573
469907064
470252556
470628211
471003866
471410175
471816484
472222794
472660127
473097460
473566065
474034670
474534670
475034670
475566065
476097460
476660127
477222794
477816484
478410175
479034520
479689028
480343537
481027599
481740489
482453379
483194255
483962169
484730082
485523975
486342687
487184960
488049445
488934701
489819958
490724466
491646630
492584784
493537197
494502085
495477614
496461905
497453049
498449106
499448120
500448120
501447133
502443190
503434334
504418626
505394154
506359042
507311456
508249609
509171773
510076281
510961538
511846795
512711279
513553553
514372264
515166157
515934071
516701984
517442861
518155750
518839813
519523875
520178383
520802728
521427073
522020764
522583431
523146097
523677492
524208888
524708888
525208888
525677492
526146097
526583431
527020764
527427073
527833383
528239692
528615347
528991002
529366657
529712149
530057640
530373578
530689516
531005453
531292564
531579674
531866784
532153895
532413018
532672141
532931264
533190387
533422474
533654561
533886647
534118734
534324841
534530949
534737056
534943163
535149271
535330559
535511847
535693135
535874423
536055711
536213437
536371164
536528890
536686617
536844343
537002069
537137585
537273101
537408616
537544132
537679648
537815164
537950679
538086195
538200938
538315682
538430425
538545168
538659912
538774655
538889399
539004142
539104142
539204142
539304142
539404142
539504142
539604142
539704142
539804142
539904142
540004142
540104142
540204142
540304142
540404142
540504142
540604142
540704142
540804142
540904142
541004142
541104142
541204142
541304142
541404142
541504142
541604142
541704142
541804142
541904142
542004142
542104142
542204142
542304142
542404142
542504142
542604142
542704142
542804142
542904142
543004142
543104142
543204142
543304142
543404142
543504142
543604142
543704142
543804142
543904142
544004142
544104142
544204142
544304142
544404142
544504142
544604142
544704142
544804142
544904142
545004142
545104142
545204142
545304142
545404142
545504142
545604142
545704142
545804142
545904142
546004142
546104142
546204142
546304142
546404142
546504142
546604142
546704142
546804142
546904142
547004142
547104142
547204142
547304142
547404142
547504142
547604142
547704142
547804142
547904142
548004142
548104142
548204142
548304142
548404142
548504142
548604142
548704142
548804142
548904142
549004142
549104142
549204142
549304142
549404142
549504142
549604142
549704142
549804142
549904142
550004142
550104142
550204142
550304142
550404142
550504142
550604142
550704142
550804142
550904142
551004142
551104142
551204142
551304142
551404142
551504142
551604142
551704142
551804142
551904142
552004142
552104142
552204142
552304142
552404142
552504142
552604142
552704142
552804142
552904142
553004142
553104142
553204142
553304142
553404142
553504142
553604142
553704142
553804142
553904142
554004142
554104142
554204142
554304142
554404142
554504142
554604142
554704142
554804142
554904142
555004142
555104142
555204142
555304142
555404142
555504142
555604142
555704142
555804142
555904142
556004142
556104142
556204142
556304142
556404142
556504142
556604142
556704142
556804142
556904142
557004142
557104142
557204142
557304142
557404142
557504142
557604142
557704142
557804142
557904142
558004142
558104142
558204142
558304142
558404142
558504142
558604142
558704142
558804142
558904142
559004142
559104142
559204142
559304142
559404142
559504142
559604142
559704142
559804142
559904142
560004142
560118885
560233629
560348372
560463115
560577859
560692602
560807346
560922089
561036832
561172348
561307864
561443379
561578895
561714411
561849926
561985442
562120958
562278684
562436411
562594137
562751864
562909590
563067317
563248605
563429893
563611181
563792469
563973757
564155045
564361152
564567259
564773367
564979474
565185581
565417668
565649755
565881841
566113928
566373051
566632174
566891297
567150420
567437531
567724641
568011752
568327689
568643627
568959565
569275502
569620994
569966485
570311977
570687632
571063287
571469596
571875906
572282215
572719548
573156882
573625487
574094091
574594091
575094091
575625487
576156882
576719548
577282215
577875906
578469596
579093941
579748450
580402958
581087021
581799910
582512800
583253677
584021590
584815483
585609375
586428087
587270361
588134845
589020102
589924610
590829119
591751283
592689436
593641850
594606738
595582266
596566558
597557701
598553759
599552772
600552772
601551785
602547843
603538986
604523278
605498806
606463695
607416108
608354261
609276425
610180934
611066190
611930675
612795159
613637433
614456145
615250037
616017951
616758828
617499704
618212594
618896656
619580719
620235227
620859572
621483917
622077608
622640274
623202941
623734336
624265731
624765731
625265731
625734336
626202941
626640274
627077608
627483917
627890226
628296536
628672191
629047846
629393337
629738829
630084320
630400258
630716196
631032133
631319244
631606354
631893464
632180575
632439698
632698821
632957944
633217067
633449154
633681241
633913327
634145414
634351521
634557629
634763736
634969843
635175951
635357239
635538527
635719815
635901103
636082391
636240117
636397844
636555570
636713297
636871023
637028749
637164265
637299781
637435297
637570812
637706328
637841844
637977359
638112875
638227618
638342362
638457105
638571848
638686592
638801335
638916079
639030822
639130822
639230822
639330822
639430822
639530822
639630822
639730822
639830822
639930822
640030822
640130822
640230822
640330822
640430822
640530822
640630822
640730822
640830822
640930822
641030822
641130822
641230822
641330822
641430822
641530822
641630822
641730822
641830822
641930822
642030822
642130822
642230822
642330822
642430822
642530822
642630822
642730822
642830822
642930822
643030822
643130822
643230822
643330822
643430822
643530822
643630822
643730822
643830822
643930822
644030822
644130822
644230822
644330822
644430822
644530822
644630822
644730822
644830822
644930822
645030822
645130822
645230822
645330822
645430822
645530822
645630822
645730822
645830822
645930822
646030822
646130822
646230822
646330822
646430822
646530822
646630822
646730822
646830822
646930822
647030822
647130822
647230822
647330822
647430822
647530822
647630822
647730822
647830822
647930822
648030822
648130822
648230822
648330822
648430822
648530822
648630822
648730822
648830822
648930822
649030822
649130822
649230822
649330822
649430822
649530822
649630822
649730822
649830822
649930822
650030822
650130822
650230822
650330822
650430822
650530822
650630822
650730822
650830822
650930822
651030822
651130822
651230822
651330822
651430822
651530822
651630822
651730822
651830822
651930822
652030822
652130822
652230822
652330822
652430822
652530822
652630822
652730822
652830822
652930822
653030822
653130822
653230822
653330822
653430822
653530822
653630822
653730822
653830822
653930822
654030822
654130822
654230822
654330822
654430822
654530822
654630822
654730822
654830822
654930822
655030822
655130822
655230822
655330822
655430822
655530822
655630822
655730822
655830822
655930822
656030822
656130822
656230822
656330822
656430822
656530822
656630822
656730822
656830822
656930822
657030822
657130822
657230822
657330822
657430822
657530822
657630822
657730822
657830822
657930822
658030822
658130822
658230822
658330822
658430822
658530822
658630822
658730822
658830822
658930822
659030822
659130822
659230822
659330822
659430822
659530822
659630822
659730822
659830822
659930822
660030822
660145565
660260309
660375052
660489796
660604539
660719282
660834026
660948769
661063512
661199028
661334544
661470059
661605575
661741091
661876607
662012122
662169849
662327575
662485302
662643028
662800754
662958481
663116207
663297495
663478783
663660071
663841359
664022647
664228755
664434862
664640969
664847077
665053184
665285271
665517357
665749444
665981531
666213617
666472740
666731864
666990987
667250110
667537220
667824331
668111441
668427379
668743316
669059254
669404746
669750237
670095729
670471384
670847039
671222694
671629003
672035313
672472646
672909979
673347313
673815917
674284522
674784522
675284522
675815917
676347313
676909979
677472646
678066337
678690681
679315026
679969535
680624043
681308106
682020995
682761872
683502749
684270662
685064555
685883267
686701979
687544253
688408737
689293994
690198502
691120666
692058819
693011233
693976121
694941009
695916538
696900829
697891973
698888030
699887044
700887044
701886057
702882114
703873258
704857549
705833078
706797966
707750379
708688533
709610697
710515205
711400462
712264946
713107220
713925932
714744644
715538536
716306450
717047327
717760216
718473106
719157168
719811677
720466185
721090530
721684221
722277911
722840578
723403245
723934640
724466035
724966035
725466035
725934640
726403245
726840578
727277911
727684221
728090530
728466185
728841840
729217495
729562987
729908478
730253970
730569908
730885845
731201783
731488893
731776004
732063114
732322237
732581360
732840484
733099607
733331693
733563780
733795866
734027953
734234060
734440168
734646275
734852383
735058490
735239778
735421066
735602354
735783642
735964930
736146218
736303944
736461671
736619397
736777124
736934850
737092577
737228092
737363608
737499124
737634639
737770155
737905671
738041186
738155930
738270673
738385417
738500160
738614903
738729647
738844390
738959133
739073877
739173877
739273877
739373877
739473877
739573877
739673877
739773877
739873877
739973877
740073877
740173877
740273877
740373877
740473877
740573877
740673877
740773877
740873877
740973877
741073877
741173877
741273877
741373877
741473877
741573877
741673877
741773877
741873877
741973877
742073877
742173877
742273877
742373877
742473877
742573877
742673877
742773877
742873877
742973877
743073877
743173877
743273877
743373877
743473877
743573877
743673877
743773877
743873877
743973877
744073877
744173877
744273877
744373877
744473877
744573877
744673877
744773877
744873877
744973877
745073877
745173877
745273877
745373877
745473877
745573877
745673877
745773877
745873877
745973877
746073877
746173877
746273877
746373877
746473877
746573877
746673877
746773877
746873877
746973877
747073877
747173877
747273877
747373877
747473877
747573877
747673877
747773877
747873877
747973877
748073877
748173877
748273877
748373877
748473877
748573877
748673877
748773877
748873877
748973877
749073877
749173877
749273877
749373877
749473877
749573877
749673877
749773877
749873877
749973877
750073877
750173877
750273877
750373877
750473877
750573877
750673877
750773877
750873877
750973877
751073877
751173877
751273877
751373877
751473877
751573877
751673877
751773877
751873877
751973877
752073877
752173877
752273877
752373877
752473877
752573877
752673877
752773877
752873877
752973877
753073877
753173877
753273877
753373877
753473877
753573877
753673877
753773877
753873877
753973877
754073877
754173877
754273877
754373877
754473877
754573877
754673877
754773877
754873877
754973877
755073877
755173877
755273877
755373877
755473877
755573877
755673877
755773877
755873877
755973877
756073877
756173877
756273877
756373877
756473877
756573877
756673877
756773877
756873877
756973877
757073877
757173877
757273877
757373877
757473877
757573877
757673877
757773877
757873877
757973877
758073877
758173877
758273877
758373877
758473877
758573877
758673877
758773877
758873877
758973877
759073877
759173877
759273877
759373877
759473877
759573877
759673877
759773877
759873877
759973877
760073877
760188620
760303364
760418107
760532850
760647594
760762337
760877081
760991824
761106567
761242083
761377599
761513114
761648630
761784146
761919661
762055177
762212904
762370630
762528356
762686083
762843809
763001536
763182824
763364112
763545400
763726688
763907976
764089264
764295371
764501479
764707586
764913693
765119801
765351887
765583974
765816060
766048147
766307270
766566393
766825517
767084640
767371750
767658860
767945971
768233081
768549019
768864957
769180894
769526386
769871877
770217369
770593024
770968679
771344334
771750643
772156953
772594286
773031619
773500224
773968829
774437434
774937434
775437434
775968829
776500224
777062891
777656581
778250272
778874617
779498962
780153471
780837533
781521595
782234485
782975362
783716238
784484152
785278044
786096756
786939030
787781303
788645788
789531044
790435553
791357717
792295870
793248284
794213172
795188700
796172992
797164135
798160193
799159206
800159206
