1000000 0.00891304 1.11413 2.78533
1996057 0.0178261 0.150452 -1.7224
2992115 0.0267391 0.169258 0.312933
3983258 0.0356522 0.190471 0.39747
4967550 0.0445652 0.214358 -0.192329
5943078 0.0534783 0.241254 0.198446
6907966 0.0623913 0.271537 0.179359
7860380 0.0713044 0.305631 0.135861
8798533 0.0802174 0.204746 -0.140422
9720697 0.0891304 0.211739 0.0626567
10625206 0.0980435 0.217284 0.0298523
11510462 0.106957 0.220904 -0.00175639
12374947 0.11587 0.222025 0.025929
13217220 0.124783 0.219961 0.00738042
14035932 0.133696 0.213894 -0.0106359
14829825 0.142609 0.202853 -0.029102
15623717 0.151522 0.202616 -0.00883449
16391631 0.160435 0.201951 -0.0143098
17132508 0.169348 0.200563 -0.0177426
17845397 0.178261 0.198611 -0.0170677
18558287 0.187174 0.195685 -0.0225436
19242349 0.196087 0.193309 -0.0230216
19896858 0.205 0.191471 -0.0226781
20551366 0.213913 0.190048 -0.0224951
21175711 0.222826 0.1893 -0.0200465
21769402 0.231739 0.18864 -0.0190842
22363093 0.240652 0.187149 -0.0216828
22925759 0.249565 0.186751 -0.0169719
23488426 0.258478 0.185634 -0.0193966
24019821 0.267391 0.18584 -0.0135439
24519821 0.276304 0.186453 -0.00941474
25019821 0.285217 0.186003 -0.0128359
25488426 0.29413 0.187084 -0.00318226
25957030 0.303043 0.18689 -0.00739519
26425635 0.311957 0.186857 -0.00602631
26862969 0.32087 0.188571 0.00564322
27300302 0.329783 0.188938 0.000154129
27706611 0.338696 0.19127 0.0142941
28112921 0.347609 0.191873 0.00872778
28488576 0.356522 0.194844 0.025568
28864231 0.365435 0.195814 0.0186026
29239886 0.374348 0.196929 0.020648
29585377 0.383261 0.200778 0.0440517
29930869 0.392174 0.202303 0.0318661
30276360 0.401087 0.203974 0.0362312
30592298 0.41 0.208579 0.064472
30908236 0.418913 0.210667 0.0496665
31224174 0.427826 0.212645 0.0532433
31511284 0.436739 0.218289 0.0909961
31798394 0.445652 0.220959 0.0717254
32085505 0.454565 0.223482 0.0759567
32344628 0.463478 0.230321 0.125649
32603751 0.472392 0.233614 0.100106
32862874 0.481305 0.236743 0.10562
33121997 0.490218 0.240003 0.114292
33354084 0.499131 0.248431 0.170794
33586170 0.508044 0.252199 0.138265
33818257 0.516957 0.256104 0.1479
34050344 0.52587 0.260182 0.158165
34256451 0.534783 0.269966 0.229755
34462558 0.543696 0.27451 0.189071
34668666 0.552609 0.27923 0.201506
34874773 0.561522 0.284134 0.214563
35080881 0.570435 0.288596 0.205413
35262169 0.579348 0.300547 0.320169
35443457 0.588261 0.306102 0.261645
35624745 0.597174 0.311842 0.275963
35806033 0.606087 0.317077 0.286629
35987321 0.615 0.322397 0.279435
36168609 0.623914 0.327793 0.284917
36326335 0.632827 0.342431 0.444765
36484061 0.64174 0.349161 0.358942
36641788 0.650653 0.355237 0.368467
36799514 0.659566 0.36138 0.390401
36957241 0.668479 0.367571 0.377592
37114967 0.677392 0.373884 0.384167
37250483 0.686305 0.391896 0.620337
37385999 0.695218 0.399909 0.493346
37521514 0.704131 0.407094 0.507018
37657030 0.713044 0.414335 0.538759
37792546 0.721957 0.421723 0.521062
37928061 0.73087 0.429266 0.530873
38063577 0.739783 0.436978 0.539932
38178320 0.748696 0.459748 0.89409
38293064 0.757609 0.468229 0.675997
38407807 0.766522 0.47677 0.71359
38522551 0.775435 0.485478 0.760659
38637294 0.784348 0.494372 0.731336
38752037 0.793262 0.503453 0.749255
38866781 0.802175 0.512726 0.762338
38981524 0.811088 0.522195 0.767049
39096267 0.820001 0.530001 0.739733
39196267 0.828914 0.552037 1.1182
39296267 0.837827 0.561446 0.891457
39396267 0.84674 0.570942 0.924746
39496267 0.855653 0.580513 0.97288
39596267 0.864566 0.590146 0.938083
39696267 0.873479 0.599823 0.950866
39796267 0.882392 0.609527 0.958045
39896267 0.891305 0.619467 0.960267
39996267 0.900218 0.627896 0.928014
40096267 0.909131 0.636202 0.919238
40196267 0.918044 0.64436 0.905819
40296267 0.926957 0.652341 0.88779
40396267 0.93587 0.660115 0.87257
40496267 0.944784 0.667652 0.854959
40596267 0.953697 0.674918 0.835471
40696267 0.96261 0.681849 0.814032
40796267 0.971523 0.688593 0.794716
40896267 0.980436 0.695142 0.774774
40996267 0.989349 0.701489 0.754574
41096267 0.998262 0.707633 0.734605
41196267 1.00717 0.713573 0.714481
41296267 1.01609 0.719313 0.694418
41396267 1.025 0.724862 0.674609
41496267 1.03391 0.730239 0.655292
41596267 1.04283 0.735444 0.636224
41696267 1.05174 0.740481 0.617458
41796267 1.06065 0.745356 0.599114
41896267 1.06957 0.750072 0.581086
41996267 1.07848 0.754634 0.563473
42096267 1.08739 0.759049 0.546299
42196267 1.09631 0.763323 0.529549
42296267 1.10522 0.767458 0.513217
42396267 1.11413 0.77146 0.497309
42496267 1.12304 0.775332 0.481827
42596267 1.13196 0.779079 0.466764
42696267 1.14087 0.782705 0.452122
42796267 1.14978 0.786214 0.437901
42896267 1.1587 0.78961 0.424087
42996267 1.16761 0.792896 0.410675
43096267 1.17652 0.796075 0.397655
43196267 1.18544 0.799152 0.385028
43296267 1.19435 0.80213 0.372777
43396267 1.20326 0.805011 0.360897
43496267 1.21218 0.807799 0.349381
43596267 1.22109 0.810497 0.338214
43696267 1.23 0.813108 0.327398
43796267 1.23891 0.815635 0.316913
43896267 1.24783 0.81808 0.306756
43996267 1.25674 0.820446 0.296914
44096267 1.26565 0.822735 0.287385
44196267 1.27457 0.824951 0.278148
44296267 1.28348 0.827094 0.269212
44396267 1.29239 0.829169 0.260556
44496267 1.30131 0.831177 0.25217
44596267 1.31022 0.83312 0.244053
44696267 1.31913 0.835 0.236196
44796267 1.32804 0.836819 0.228587
44896267 1.33696 0.838579 0.221218
44996267 1.34587 0.840283 0.214093
45096267 1.35478 0.841932 0.207189
45196267 1.3637 0.843527 0.200506
45296267 1.37261 0.845071 0.194041
45396267 1.38152 0.846564 0.18778
45496267 1.39044 0.84801 0.18172
45596267 1.39935 0.849409 0.175859
45696267 1.40826 0.850763 0.170182
45796267 1.41718 0.852073 0.16469
45896267 1.42609 0.85334 0.159375
45996267 1.435 0.854567 0.154229
46096267 1.44391 0.855754 0.149246
46196267 1.45283 0.856903 0.144428
46296267 1.46174 0.858014 0.139766
46396267 1.47065 0.85909 0.135253
46496267 1.47957 0.860131 0.130881
46596267 1.48848 0.861138 0.126658
46696267 1.49739 0.862113 0.122565
46796267 1.50631 0.863056 0.11861
46896267 1.51522 0.863969 0.114776
46996267 1.52413 0.864852 0.111069
47096267 1.53305 0.865707 0.107482
47196267 1.54196 0.866534 0.104009
47296267 1.55087 0.867334 0.100648
47396267 1.55978 0.868109 0.0973995
47496267 1.5687 0.868858 0.094252
47596267 1.57761 0.869584 0.0912081
47696267 1.58652 0.870285 0.0882601
47796267 1.59544 0.870964 0.0854096
47896267 1.60435 0.871622 0.0826481
47996267 1.61326 0.872258 0.0799795
48096267 1.62218 0.872873 0.0773957
48196267 1.63109 0.873469 0.0748951
48296267 1.64 0.874045 0.0724765
48396267 1.64891 0.874603 0.0701334
48496267 1.65783 0.875142 0.0678671
48596267 1.66674 0.875665 0.0656743
48696267 1.67565 0.87617 0.0635546
48796267 1.68457 0.876659 0.0615
48896267 1.69348 0.877132 0.059515
48996267 1.70239 0.87759 0.0575894
49096267 1.71131 0.878033 0.0557272
49196267 1.72022 0.878462 0.0539279
49296267 1.72913 0.878877 0.0521862
49396267 1.73805 0.879279 0.0505015
49496267 1.74696 0.879667 0.0488668
49596267 1.75587 0.880043 0.04729
49696267 1.76478 0.880407 0.0457636
49796267 1.7737 0.880759 0.0442824
49896267 1.78261 0.8811 0.0428525
49996267 1.79152 0.88143 0.0414686
50096267 1.80044 0.881749 0.0401297
50196267 1.80935 0.882058 0.03883
50296267 1.81826 0.882357 0.0375777
50396267 1.82718 0.882646 0.036362
50496267 1.83609 0.882925 0.0351882
50596267 1.845 0.883196 0.0340515
50696267 1.85392 0.883458 0.0329511
50796267 1.86283 0.883712 0.0318851
50896267 1.87174 0.883957 0.0308554
50996267 1.88065 0.884195 0.0298597
51096267 1.88957 0.884424 0.028894
51196267 1.89848 0.884647 0.0279626
51296267 1.90739 0.884862 0.0270558
51396267 1.91631 0.88507 0.0261823
51496267 1.92522 0.885271 0.0253374
51596267 1.93413 0.885467 0.0245198
51696267 1.94305 0.885655 0.0237263
51796267 1.95196 0.885838 0.0229602
51896267 1.96087 0.886014 0.0222176
51996267 1.96978 0.886185 0.0214992
52096267 1.9787 0.886351 0.0208052
52196267 1.98761 0.886511 0.0201329
52296267 1.99652 0.886666 0.0194837
52396267 2.00544 0.886816 0.0188537
52496267 2.01435 0.886961 0.0182435
52596267 2.02326 0.887101 0.0176524
52696267 2.03218 0.887237 0.0170852
52796267 2.04109 0.887368 0.0165317
52896267 2.05 0.887496 0.0159981
52996267 2.05892 0.887619 0.0154806
53096267 2.06783 0.887738 0.0149812
53196267 2.07674 0.887853 0.0144971
53296267 2.08565 0.887965 0.0140273
53396267 2.09457 0.888071 0.013536
53496267 2.10348 0.888175 0.0131228
53596267 2.11239 0.888276 0.012692
53696267 2.12131 0.888374 0.0122766
53796267 2.13022 0.888468 0.011882
53896267 2.13913 0.888559 0.0114939
53996267 2.14805 0.888648 0.0111202
54096267 2.15696 0.888733 0.0107606
54196267 2.16587 0.888816 0.0104116
54296267 2.17478 0.888896 0.0100762
54396267 2.1837 0.888973 0.00975023
54496267 2.19261 0.889048 0.00942901
54596267 2.20152 0.889121 0.00912957
54696267 2.21044 0.889191 0.00883172
54796267 2.21935 0.889259 0.0085446
54896267 2.22826 0.889325 0.00826786
54996267 2.23717 0.889388 0.00800235
55096267 2.24609 0.88945 0.00774308
55196267 2.255 0.889509 0.00749077
55296267 2.26391 0.889567 0.00725199
55396267 2.27283 0.889623 0.00701617
55496267 2.28174 0.889677 0.00678808
55596267 2.29065 0.889729 0.00656975
55696267 2.29956 0.88978 0.00635653
55796267 2.30848 0.889829 0.00615267
55896267 2.31739 0.889876 0.00595116
55996267 2.3263 0.889922 0.00576128
56096267 2.33522 0.889966 0.00557352
56196267 2.34413 0.890009 0.00539349
56296267 2.35304 0.89005 0.00522069
56396267 2.36196 0.89009 0.0050503
56496267 2.37087 0.890129 0.00488797
56596267 2.37978 0.890167 0.0047282
56696267 2.38869 0.890203 0.00457912
56796267 2.39761 0.890238 0.00442608
56896267 2.40652 0.890272 0.00428464
56996267 2.41543 0.890306 0.00414964
57096267 2.42435 0.890337 0.0040126
57196267 2.43326 0.890368 0.00388327
57296267 2.44217 0.890398 0.00375696
57396267 2.45108 0.890427 0.00363467
57496267 2.46 0.890455 0.00351793
57596267 2.46891 0.890482 0.00340806
57696267 2.47782 0.890508 0.00329486
57796267 2.48674 0.890534 0.0031858
57896267 2.49565 0.890558 0.00308793
57996267 2.50456 0.890582 0.00298564
58096267 2.51348 0.890605 0.00288794
58196267 2.52239 0.890627 0.00279678
58296267 2.5313 0.890649 0.00270545
58396267 2.54021 0.89067 0.0026187
58496267 2.54913 0.89069 0.0025347
58596267 2.55804 0.890709 0.00245064
58696267 2.56695 0.890728 0.00237395
58796267 2.57587 0.890746 0.00229607
58896267 2.58478 0.890764 0.00222158
58996267 2.59369 0.890781 0.00215133
59096267 2.6026 0.890798 0.00208084
59196267 2.61152 0.890814 0.00201219
59296267 2.62043 0.890829 0.00194686
59396267 2.62934 0.890844 0.00188647
59496267 2.63826 0.890859 0.0018249
59596267 2.64717 0.890873 0.00176694
59696267 2.65608 0.890886 0.00170898
59796267 2.665 0.890899 0.00165163
59896267 2.67391 0.890912 0.00160089
59996267 2.68282 0.890924 0.00154825
60096267 2.69173 0.890936 0.00149694
60211011 2.70065 0.876632 -0.310495
60325754 2.70956 0.874855 -0.115589
60440498 2.71847 0.872851 -0.14979
60555241 2.72739 0.870598 -0.193069
60669984 2.7363 0.86806 -0.169903
60784728 2.74521 0.865203 -0.190443
60899471 2.75412 0.861989 -0.208386
61014214 2.76304 0.85837 -0.221021
61149730 2.77195 0.841204 -0.47165
61285246 2.78086 0.836997 -0.302865
61420762 2.78978 0.832515 -0.331564
61556277 2.79869 0.827756 -0.364327
61691793 2.8076 0.822717 -0.342643
61827309 2.81652 0.817406 -0.357605
61962824 2.82543 0.811834 -0.36894
62098340 2.83434 0.806017 -0.374621
62256066 2.84325 0.790042 -0.5285
62413793 2.85217 0.784172 -0.411054
62571519 2.86108 0.778129 -0.424321
62729246 2.86999 0.771925 -0.4393
62886972 2.87891 0.765577 -0.419294
63044699 2.88782 0.759098 -0.423425
63225987 2.89673 0.743325 -0.538007
63407275 2.90564 0.735489 -0.453247
63588563 2.91456 0.72867 -0.447706
63769851 2.92347 0.721732 -0.455413
63951139 2.93238 0.714683 -0.436306
64132427 2.9413 0.707527 -0.43353
64338534 2.95021 0.692871 -0.509091
64544641 2.95912 0.684592 -0.445144
64750749 2.96803 0.677251 -0.435996
64956856 2.97695 0.669971 -0.435855
65162964 2.98586 0.662633 -0.418252
65395050 2.99477 0.649195 -0.467277
65627137 3.00369 0.641009 -0.418525
65859223 3.0126 0.632695 -0.415577
66091310 3.02151 0.625173 -0.406372
66350433 3.03043 0.612737 -0.430101
66609556 3.03934 0.604672 -0.390816
66868679 3.04825 0.59651 -0.385571
67127803 3.05716 0.588244 -0.381368
67414913 3.06608 0.576435 -0.392273
67702023 3.07499 0.568363 -0.360088
67989134 3.0839 0.560321 -0.353454
68276244 3.09282 0.552215 -0.34704
68592182 3.10173 0.541109 -0.353027
68908119 3.11064 0.533163 -0.326251
69224057 3.11955 0.525245 -0.319238
69569549 3.12847 0.514353 -0.32844
69915040 3.13738 0.506593 -0.299635
70260532 3.14629 0.498872 -0.2927
70636187 3.15521 0.488602 -0.298543
71011842 3.16412 0.48065 -0.275637
71418151 3.17303 0.470855 -0.276987
71824461 3.18195 0.463067 -0.260715
72230770 3.19086 0.455295 -0.251157
72668103 3.19977 0.445967 -0.250535
73105437 3.20868 0.438389 -0.233923
73574041 3.2176 0.429128 -0.233308
74042646 3.22651 0.421694 -0.219103
74542646 3.23542 0.412832 -0.215895
75042646 3.24434 0.405579 -0.203342
75574041 3.25325 0.397076 -0.199586
76105437 3.26216 0.389799 -0.188943
76668103 3.27107 0.381613 -0.18434
77230770 3.27999 0.374516 -0.17475
77824461 3.2889 0.366654 -0.170111
78418151 3.29781 0.359774 -0.161271
79042496 3.30673 0.352221 -0.156779
79697005 3.31564 0.344729 -0.150658
80351513 3.32455 0.338185 -0.142171
81035575 3.33347 0.330998 -0.138668
81748465 3.34238 0.324013 -0.132371
82461355 3.35129 0.3177 -0.125441
83202232 3.3602 0.31099 -0.121761
83970145 3.36912 0.304363 -0.116469
84738058 3.37803 0.298381 -0.110393
85531951 3.38694 0.292112 -0.106895
86350663 3.39586 0.285928 -0.102324
87192936 3.40477 0.279913 -0.0977551
88057421 3.41368 0.274061 -0.0936678
88942677 3.42259 0.268304 -0.0896955
89827934 3.43151 0.262968 -0.0853482
90732443 3.44042 0.257526 -0.0822199
91654607 3.44933 0.252183 -0.0788
92592760 3.45825 0.246986 -0.0754412
93545173 3.46716 0.241941 -0.0723594
94510062 3.47607 0.237043 -0.0693404
95485590 3.48498 0.232289 -0.0664664
96469881 3.4939 0.227686 -0.063734
97461025 3.50281 0.223197 -0.0612068
98457082 3.51172 0.218851 -0.0587611
99456096 3.52064 0.214651 -0.0564349
100456096 3.52955 0.210598 -0.0542328
101455109 3.53846 0.206692 -0.0521337
102451167 3.54738 0.202931 -0.0501395
103442310 3.55629 0.199317 -0.0482432
104426602 3.5652 0.195849 -0.0464372
105402130 3.57411 0.192532 -0.0447053
106367018 3.58303 0.189368 -0.0430442
107319432 3.59194 0.186359 -0.0414456
108257585 3.60085 0.183506 -0.0398993
109179749 3.60977 0.180814 -0.0383961
110084258 3.61868 0.178285 -0.0369246
110969514 3.62759 0.175924 -0.0354726
111854771 3.6365 0.173434 -0.0347317
112719255 3.64542 0.171349 -0.0328114
113561529 3.65433 0.169436 -0.0314305
114380241 3.66324 0.167702 -0.0300401
115174133 3.67216 0.166152 -0.0284519
115942047 3.68107 0.164794 -0.0269019
116709960 3.68998 0.163107 -0.0268389
117450837 3.6989 0.162034 -0.0241679
118163727 3.70781 0.1612 -0.0224038
118847789 3.71672 0.16059 -0.020582
119531851 3.72563 0.159484 -0.0208298
120186360 3.73455 0.159192 -0.0170685
120810705 3.74346 0.159145 -0.0148103
121435049 3.75237 0.158439 -0.0160045
122028740 3.76129 0.158776 -0.0105484
122591407 3.7702 0.159404 -0.00755296
123154073 3.77911 0.159179 -0.00952383
123685469 3.78802 0.160168 -0.00225414
124216864 3.79694 0.160254 -0.00443014
124716864 3.80585 0.161703 0.00319371
125216864 3.81476 0.162023 0.000726176
125685469 3.82368 0.163964 0.0102269
126154073 3.83259 0.164612 0.00699626
126591407 3.8415 0.166963 0.0179266
127028740 3.85041 0.167936 0.0143497
127435049 3.85933 0.170852 0.0277611
127841359 3.86824 0.172177 0.0231604
128247668 3.87715 0.173486 0.0243739
128623323 3.88607 0.177157 0.043251
128998978 3.89498 0.178806 0.0336714
129374633 3.90389 0.18058 0.0371317
129720125 3.91281 0.184872 0.0595664
130065616 3.92172 0.186989 0.0479114
130381554 3.93063 0.192022 0.0759819
130697492 3.93954 0.194503 0.065494
131013430 3.94846 0.19713 0.0681345
131300540 3.95737 0.203167 0.104973
131587650 3.96628 0.206212 0.0861659
131874761 3.9752 0.209416 0.092716
132161871 3.98411 0.212484 0.0976799
132420994 3.99302 0.219862 0.140324
132680117 4.00194 0.223342 0.116255
132939240 4.01085 0.226947 0.123345
133198364 4.01976 0.230675 0.130939
133430450 4.02867 0.239122 0.183629
133662537 4.03759 0.243235 0.153789
133894623 4.0465 0.247463 0.162629
134126710 4.05541 0.251835 0.172107
134332817 4.06433 0.261883 0.244004
134538925 4.07324 0.2667 0.203116
134745032 4.08215 0.271669 0.215083
134951139 4.09106 0.276794 0.227707
135157247 4.09998 0.281502 0.218591
135338535 4.10889 0.293686 0.333365
135519823 4.1178 0.299464 0.274595
135701111 4.12672 0.305418 0.28874
135882399 4.13563 0.31086 0.29922
136063687 4.14454 0.31638 0.29176
136221413 4.15345 0.331149 0.454029
136379140 4.16237 0.337943 0.368938
136536866 4.17128 0.344999 0.390515
136694593 4.18019 0.351412 0.405027
136852319 4.18911 0.357908 0.394081
137010046 4.19802 0.364469 0.401398
137145561 4.20693 0.382748 0.637345
137281077 4.21585 0.391044 0.511241
137416593 4.22476 0.398531 0.525613
137552108 4.23367 0.406105 0.558276
137687624 4.24259 0.413742 0.539682
137823140 4.2515 0.421534 0.549626
137958655 4.26041 0.429487 0.558629
138094171 4.26933 0.437614 0.561905
138208914 4.27824 0.459357 0.89126
138323658 4.28715 0.467895 0.688976
138438401 4.29606 0.476566 0.724465
138553145 4.30498 0.485373 0.768054
138667888 4.31389 0.494328 0.740476
138782631 4.3228 0.503427 0.756502
138897375 4.33172 0.512668 0.767609
139012118 4.34063 0.522051 0.770574
139112118 4.34954 0.544203 1.12748
139212118 4.35846 0.553742 0.904878
139312118 4.36737 0.563389 0.941905
139412118 4.37628 0.573141 0.987366
139512118 4.3852 0.582992 0.954828
139612118 4.39411 0.592938 0.969667
139712118 4.40302 0.602972 0.978809
139812118 4.41194 0.613087 0.978703
139912118 4.42085 0.621697 0.947055
140012118 4.42976 0.630192 0.938504
140112118 4.43868 0.638542 0.924825
140212118 4.44759 0.646717 0.906973
140312118 4.4565 0.654683 0.891717
140412118 4.46542 0.662401 0.873832
140512118 4.47433 0.66983 0.853846
140612118 4.48324 0.676923 0.83217
140712118 4.49215 0.683826 0.812541
140812118 4.50107 0.69053 0.792246
140912118 4.50998 0.697028 0.771701
141012118 4.51889 0.703317 0.751345
141112118 4.52781 0.709397 0.730804
141212118 4.53672 0.715271 0.710323
141312118 4.54563 0.720951 0.690123
141412118 4.55455 0.726455 0.670401
141512118 4.56346 0.731783 0.650929
141612118 4.57237 0.73694 0.631779
141712118 4.58129 0.741929 0.613002
141812118 4.5902 0.746756 0.594591
141912118 4.59911 0.751425 0.576589
142012118 4.60803 0.755945 0.559026
142112118 4.61694 0.760319 0.541905
142212118 4.62585 0.764552 0.525208
142312118 4.63477 0.768648 0.508937
142412118 4.64368 0.772611 0.4931
142512118 4.65259 0.776447 0.477692
142612118 4.66151 0.780158 0.462718
142712118 4.67042 0.78375 0.448166
142812118 4.67933 0.787225 0.434035
142912118 4.68825 0.790589 0.420313
143012118 4.69716 0.793843 0.406993
143112118 4.70607 0.796993 0.394072
143212118 4.71498 0.80004 0.381536
143312118 4.7239 0.802989 0.369379
143412118 4.73281 0.805843 0.357596
143512118 4.74172 0.808605 0.34617
143612118 4.75064 0.811278 0.335099
143712118 4.75955 0.813864 0.324368
143812118 4.76846 0.816366 0.313973
143912118 4.77738 0.818788 0.303902
144012118 4.78629 0.821131 0.294148
144112118 4.7952 0.823399 0.284699
144212118 4.80412 0.825594 0.27555
144312118 4.81303 0.827717 0.266689
144412118 4.82194 0.829772 0.258107
144512118 4.83086 0.831761 0.249801
144612118 4.83977 0.833685 0.24176
144712118 4.84868 0.835547 0.233971
144812118 4.8576 0.837349 0.226429
144912118 4.86651 0.839093 0.219134
145012118 4.87542 0.84078 0.212068
145112118 4.88434 0.842413 0.205231
145212118 4.89325 0.843993 0.198609
145312118 4.90216 0.845522 0.192206
145412118 4.91107 0.847002 0.186003
145512118 4.91999 0.848434 0.180003
145612118 4.9289 0.84982 0.174193
145712118 4.93781 0.85116 0.168569
145812118 4.94673 0.852458 0.163128
145912118 4.95564 0.853714 0.157863
146012118 4.96455 0.854929 0.152766
146112118 4.97347 0.856104 0.147832
146212118 4.98238 0.857242 0.14306
146312118 4.99129 0.858343 0.13844
146412118 5.00021 0.859408 0.13397
146512118 5.00912 0.86044 0.129642
146612118 5.01803 0.861437 0.125454
146712118 5.02695 0.862403 0.121401
146812118 5.03586 0.863337 0.117482
146912118 5.04477 0.864241 0.113687
147012118 5.05369 0.865116 0.110015
147112118 5.0626 0.865962 0.10646
147212118 5.07151 0.866782 0.103022
147312118 5.08042 0.867575 0.0996949
147412118 5.08934 0.868342 0.0964732
147512118 5.09825 0.869084 0.0933571
147612118 5.10716 0.869802 0.0903382
147712118 5.11608 0.870498 0.0874223
147812118 5.12499 0.87117 0.0845976
147912118 5.1339 0.871821 0.0818643
148012118 5.14282 0.872451 0.0792209
148112118 5.15173 0.873061 0.0766605
148212118 5.16064 0.873651 0.0741829
148312118 5.16956 0.874222 0.0717859
148412118 5.17847 0.874774 0.0694691
148512118 5.18738 0.875308 0.0672224
148612118 5.1963 0.875826 0.065052
148712118 5.20521 0.876326 0.0629493
148812118 5.21412 0.876811 0.0609151
148912118 5.22304 0.877279 0.0589488
149012118 5.23195 0.877733 0.0570428
149112118 5.24086 0.878172 0.0552007
149212118 5.24978 0.878597 0.0534161
149312118 5.25869 0.879008 0.0516898
149412118 5.2676 0.879405 0.0500195
149512118 5.27651 0.87979 0.0484071
149612118 5.28543 0.880163 0.0468396
149712118 5.29434 0.880523 0.0453265
149812118 5.30325 0.880872 0.0438621
149912118 5.31217 0.88121 0.0424439
150012118 5.32108 0.881536 0.0410724
150112118 5.32999 0.881852 0.0397455
150212118 5.33891 0.882158 0.0384641
150312118 5.34782 0.882454 0.0372207
150412118 5.35673 0.88274 0.0360166
150512118 5.36565 0.883018 0.0348544
150612118 5.37456 0.883286 0.0337257
150712118 5.38347 0.883545 0.0326405
150812118 5.39239 0.883796 0.0315832
150912118 5.4013 0.884039 0.0305614
151012118 5.41021 0.884275 0.0295756
151112118 5.41913 0.884502 0.028622
151212118 5.42804 0.884722 0.0276944
151312118 5.43695 0.884936 0.0268015
151412118 5.44587 0.885142 0.0259336
151512118 5.45478 0.885341 0.0250965
151612118 5.46369 0.885534 0.0242856
151712118 5.4726 0.885721 0.0235008
151812118 5.48152 0.885902 0.0227406
151912118 5.49043 0.886077 0.0220069
152012118 5.49934 0.886247 0.0212963
152112118 5.50826 0.88641 0.0206061
152212118 5.51717 0.886569 0.0199426
152312118 5.52608 0.886722 0.0192967
152412118 5.535 0.886871 0.0186725
152512118 5.54391 0.887015 0.0180705
152612118 5.55282 0.887154 0.0174874
152712118 5.56174 0.887288 0.0169201
152812118 5.57065 0.887418 0.0163745
152912118 5.57956 0.887544 0.0158466
153012118 5.58848 0.887666 0.0153325
153112118 5.59739 0.887784 0.0148392
153212118 5.6063 0.887898 0.0143589
153312118 5.61522 0.888009 0.0138943
153412118 5.62413 0.888116 0.0134475
153512118 5.63304 0.888219 0.0130106
153612118 5.64195 0.888319 0.0125919
153712118 5.65087 0.888416 0.0121847
153812118 5.65978 0.88851 0.0117911
153912118 5.66869 0.888601 0.0114102
154012118 5.67761 0.888689 0.0110406
154112118 5.68652 0.888774 0.0106841
154212118 5.69543 0.888856 0.0103387
154312118 5.70435 0.888935 0.010004
154412118 5.71326 0.889012 0.00968185
154512118 5.72217 0.889087 0.00936823
154612118 5.73109 0.889159 0.00906627
154712118 5.74 0.889229 0.00877433
154812118 5.74891 0.889296 0.00848996
154912118 5.75783 0.889362 0.00821661
155012118 5.76674 0.889425 0.00794855
155112118 5.77565 0.889486 0.00769203
155212118 5.78457 0.889545 0.00744618
155312118 5.79348 0.889602 0.0072035
155412118 5.80239 0.889658 0.00697087
155512118 5.81131 0.889711 0.00674606
155612118 5.82022 0.889763 0.00652838
155712118 5.82913 0.889814 0.00631694
155812118 5.83805 0.889862 0.00611265
155912118 5.84696 0.889909 0.00591721
156012118 5.85587 0.889955 0.00572361
156112118 5.86478 0.889999 0.00554004
156212118 5.8737 0.890041 0.0053598
156312118 5.88261 0.890083 0.00518706
156412118 5.89152 0.890123 0.00502139
156512118 5.90044 0.890161 0.00485649
156612118 5.90935 0.890199 0.00470099
156712118 5.91826 0.890235 0.00454794
156812118 5.92718 0.89027 0.00440176
156912118 5.93609 0.890304 0.0042584
157012118 5.945 0.890336 0.00412179
157112118 5.95392 0.890368 0.00398743
157212118 5.96283 0.890399 0.00385974
157312118 5.97174 0.890429 0.00373597
157412118 5.98066 0.890457 0.00361354
157512118 5.98957 0.890485 0.00349596
157612118 5.99848 0.890512 0.00338461
157712118 6.0074 0.890538 0.00327452
157812118 6.01631 0.890563 0.00316936
157912118 6.02522 0.890588 0.00306916
158012118 6.03414 0.890611 0.00296805
158112118 6.04305 0.890634 0.00287288
158212118 6.05196 0.890656 0.00277836
158312118 6.06087 0.890678 0.00269082
158412118 6.06979 0.890698 0.00260112
158512118 6.0787 0.890718 0.00251834
158612118 6.08761 0.890738 0.00243849
158712118 6.09653 0.890756 0.00235686
158812118 6.10544 0.890775 0.00228282
158912118 6.11435 0.890792 0.00220725
159012118 6.12327 0.890809 0.00213645
159112118 6.13218 0.890826 0.00206837
159212118 6.14109 0.890841 0.00199992
159312118 6.15001 0.890857 0.00193695
159412118 6.15892 0.890872 0.0018741
159512118 6.16783 0.890886 0.00181255
159612118 6.17675 0.8909 0.00175458
159712118 6.18566 0.890914 0.00169786
159812118 6.19457 0.890927 0.00164452
159912118 6.20349 0.890939 0.00158768
160012118 6.2124 0.890951 0.00153854
160126861 6.22131 0.876648 -0.310448
160241605 6.23023 0.874869 -0.115586
160356348 6.23914 0.872868 -0.149729
160471092 6.24805 0.870613 -0.193068
160585835 6.25696 0.868076 -0.169866
160700578 6.26588 0.86522 -0.190398
160815322 6.27479 0.862004 -0.208397
160930065 6.2837 0.858387 -0.220984
161044808 6.29262 0.856104 -0.204679
161180324 6.30153 0.838874 -0.476371
161315840 6.31044 0.834625 -0.303898
161451356 6.31936 0.830127 -0.329225
161586871 6.32827 0.825383 -0.364875
161722387 6.33718 0.820403 -0.341374
161857903 6.3461 0.815203 -0.3548
161993418 6.35501 0.809806 -0.364833
162128934 6.36392 0.804018 -0.372027
162286660 6.37284 0.788084 -0.525476
162444387 6.38175 0.782266 -0.407802
162602113 6.39066 0.776284 -0.421143
162759840 6.39958 0.770146 -0.435892
162917566 6.40849 0.763864 -0.415777
163075293 6.4174 0.757446 -0.419927
163256581 6.42631 0.741721 -0.534757
163437869 6.43523 0.733933 -0.450001
163619157 6.44414 0.727165 -0.444514
163800445 6.45305 0.720277 -0.452299
163981733 6.46197 0.713276 -0.433246
164163021 6.47088 0.706168 -0.430545
164369128 6.47979 0.691555 -0.506269
164575235 6.48871 0.683319 -0.442419
164781343 6.49762 0.676018 -0.43336
164987450 6.50653 0.668779 -0.433321
165193558 6.51545 0.66148 -0.415801
165425644 6.52436 0.64808 -0.464967
165657731 6.53327 0.63993 -0.41631
165889817 6.54219 0.631651 -0.413455
166121904 6.5511 0.624163 -0.404345
166381027 6.56001 0.61176 -0.428192
166640150 6.56893 0.603727 -0.388994
166899273 6.57784 0.595596 -0.383834
167158397 6.58675 0.58736 -0.379712
167445507 6.59567 0.575579 -0.390718
167732617 6.60458 0.567535 -0.358608
168019728 6.61349 0.55952 -0.352046
168335665 6.62241 0.5479 -0.367299
168651603 6.63132 0.539917 -0.332655
168967541 6.64023 0.531941 -0.326116
169283479 6.64914 0.523984 -0.31948
169628970 6.65806 0.513045 -0.323715
169974462 6.66697 0.505228 -0.298891
170319953 6.67588 0.49744 -0.291878
170695608 6.6848 0.487091 -0.297497
171071263 6.69371 0.479489 -0.272652
171477573 6.70262 0.469698 -0.275751
171883882 6.71154 0.461918 -0.259346
172290191 6.72045 0.45416 -0.249673
172727525 6.72936 0.444854 -0.24939
173164858 6.73828 0.437307 -0.232743
173633463 6.74719 0.428091 -0.232123
174102067 6.7561 0.420716 -0.217909
174602067 6.76502 0.411876 -0.214892
175102067 6.77393 0.404648 -0.20237
175633463 6.78284 0.396173 -0.198665
176164858 6.79176 0.388925 -0.188082
176727525 6.80067 0.380768 -0.18352
177290191 6.80958 0.373701 -0.173968
177883882 6.8185 0.365867 -0.169379
178477573 6.82741 0.359011 -0.160587
179101917 6.83632 0.351482 -0.156133
179756426 6.84523 0.344013 -0.150051
180410934 6.85415 0.337494 -0.141597
181094997 6.86306 0.330329 -0.138128
181807886 6.87197 0.323366 -0.131864
182520776 6.88089 0.317074 -0.124962
183261653 6.8898 0.310384 -0.121312
184029566 6.89871 0.303777 -0.116047
184823459 6.90763 0.297339 -0.110853
185617352 6.91654 0.291504 -0.105426
186436064 6.92545 0.28533 -0.101934
187278337 6.93437 0.279325 -0.0973787
188142821 6.94328 0.273479 -0.0930879
189028078 6.95219 0.267728 -0.0893433
189932587 6.96111 0.262128 -0.0854303
190837095 6.97002 0.256922 -0.0813546
191759259 6.97893 0.251634 -0.0783677
192697412 6.98785 0.246444 -0.0751177
193649826 6.99676 0.241406 -0.0719358
194614714 7.00567 0.236514 -0.069028
195590242 7.01459 0.231768 -0.0661845
196574534 7.0235 0.227171 -0.0634622
197565678 7.03241 0.222723 -0.0608876
198561735 7.04132 0.218393 -0.058502
199560748 7.05024 0.214205 -0.0561938
200560748 7.05915 0.210164 -0.0539981
201559762 7.06806 0.20627 -0.0519186
202555819 7.07698 0.202522 -0.0499333
203546963 7.08589 0.198922 -0.0480436
204531254 7.0948 0.195469 -0.0462438
205506782 7.10372 0.192164 -0.0445252
206471671 7.11263 0.189012 -0.0428717
207424084 7.12154 0.186014 -0.0412794
208362238 7.13046 0.183173 -0.0397398
209284402 7.13937 0.180491 -0.0382416
210188910 7.14828 0.177973 -0.0367749
211074167 7.1572 0.175623 -0.0353277
211938651 7.16611 0.173444 -0.0338858
212803135 7.17502 0.171104 -0.0332641
213645409 7.18394 0.169206 -0.0312547
214464121 7.19285 0.167485 -0.0298543
215258013 7.20176 0.16595 -0.0284285
216025927 7.21067 0.164607 -0.0267564
216766804 7.21959 0.163465 -0.0251111
217507681 7.2285 0.161946 -0.0252018
218220570 7.23741 0.161099 -0.0222372
218904632 7.24633 0.160507 -0.0203013
219588695 7.25524 0.15942 -0.0209089
220243203 7.26415 0.159147 -0.0169036
220867548 7.27307 0.159119 -0.0146404
221491893 7.28198 0.158433 -0.0158601
222085584 7.29089 0.158725 -0.0106202
222648250 7.29981 0.159357 -0.00747128
223210917 7.30872 0.15914 -0.00945531
223742312 7.31763 0.160134 -0.00220861
224273708 7.32655 0.160223 -0.00436385
224773708 7.33546 0.161674 0.00324853
225273708 7.34437 0.161994 0.00076617
225742312 7.35329 0.163932 0.0102521
226210917 7.3622 0.164583 0.00703864
226648250 7.37111 0.166936 0.0179667
227085584 7.38003 0.16791 0.0143848
227491893 7.38894 0.170828 0.0277978
227898202 7.39785 0.172153 0.0231934
228304512 7.40676 0.173463 0.0244032
228680167 7.41568 0.177134 0.0432814
229055822 7.42459 0.178785 0.0337024
229401313 7.4335 0.183149 0.0569301
229746805 7.44242 0.185176 0.0481431
230092296 7.45133 0.187334 0.0503114
230408234 7.46024 0.192414 0.0790427
230724172 7.46916 0.194947 0.0644147
231040110 7.47807 0.197632 0.0696922
231327220 7.48698 0.203735 0.10643
231614330 7.4959 0.206854 0.0872913
231901441 7.50481 0.209817 0.0916529
232188551 7.51372 0.212897 0.0981647
232447674 7.52264 0.220284 0.140543
232706797 7.53155 0.223768 0.116201
232965920 7.54046 0.22737 0.123485
233225044 7.54938 0.231087 0.130919
233457130 7.55829 0.239516 0.183438
233689217 7.5672 0.243598 0.153436
233921303 7.57612 0.247821 0.162436
234153390 7.58503 0.252186 0.171849
234359497 7.59394 0.262225 0.243698
234565605 7.60286 0.267032 0.202802
234771712 7.61177 0.27199 0.214726
234977820 7.62068 0.277102 0.227319
235183927 7.62959 0.281801 0.218204
235365215 7.63851 0.293977 0.332971
235546503 7.64742 0.299747 0.274187
235727791 7.65633 0.305692 0.288324
235909079 7.66525 0.311125 0.298797
236090367 7.67416 0.316637 0.291333
236248093 7.68307 0.331398 0.45359
236405820 7.69199 0.338185 0.368498
236563546 7.7009 0.345233 0.390074
236721273 7.70981 0.35164 0.404585
236878999 7.71873 0.358127 0.393612
237036726 7.72764 0.364681 0.400949
237172241 7.73655 0.382953 0.636881
237307757 7.74547 0.391242 0.510776
237443273 7.75438 0.398723 0.525152
237578788 7.76329 0.406291 0.557815
237714304 7.77221 0.413922 0.539223
237849820 7.78112 0.421707 0.549171
237985335 7.79003 0.429656 0.558182
238120851 7.79894 0.437777 0.561465
238235595 7.80786 0.459513 0.890787
238350338 7.81677 0.468048 0.688561
238465081 7.82568 0.476714 0.72401
238579825 7.8346 0.485516 0.767615
238694568 7.84351 0.494466 0.740048
238809311 7.85242 0.50356 0.756073
238924055 7.86134 0.512798 0.767192
239038798 7.87025 0.522176 0.770166
239138798 7.87916 0.544324 1.12706
239238798 7.88808 0.553859 0.904469
239338798 7.89699 0.563502 0.941503
239438798 7.9059 0.573251 0.986968
239538798 7.91482 0.583099 0.954436
239638798 7.92373 0.593041 0.969284
239738798 7.93264 0.603071 0.978432
239838798 7.94156 0.613183 0.978334
239938798 7.95047 0.62179 0.946695
240038798 7.95938 0.630282 0.938152
240138798 7.9683 0.638629 0.924483
240238798 7.97721 0.646802 0.906639
240338798 7.98612 0.654765 0.891392
240438798 7.99503 0.66248 0.873516
240538798 8.00395 0.669906 0.853538
240638798 8.01286 0.676997 0.831872
240738798 8.02177 0.683897 0.812251
240838798 8.03069 0.690599 0.791962
240938798 8.0396 0.697095 0.771427
241038798 8.04851 0.703382 0.751079
241138798 8.05743 0.709459 0.730546
241238798 8.06634 0.715332 0.710073
241338798 8.07525 0.72101 0.689881
241438798 8.08417 0.726512 0.670166
241538798 8.09308 0.731838 0.650699
241638798 8.10199 0.736993 0.63156
241738798 8.11091 0.741981 0.612787
241838798 8.11982 0.746805 0.59438
241938798 8.12873 0.751474 0.576389
242038798 8.13765 0.755991 0.558833
242138798 8.14656 0.760364 0.541717
242238798 8.15547 0.764596 0.525025
242338798 8.16438 0.76869 0.50876
242438798 8.1733 0.772652 0.492928
242538798 8.18221 0.776486 0.477526
242638798 8.19112 0.780196 0.462558
242738798 8.20004 0.783787 0.448012
242838798 8.20895 0.787261 0.433887
242938798 8.21786 0.790623 0.420164
243038798 8.22678 0.793877 0.406854
243138798 8.23569 0.797025 0.393935
243238798 8.2446 0.800072 0.381402
243338798 8.25352 0.80302 0.369252
243438798 8.26243 0.805873 0.357471
243538798 8.27134 0.808634 0.346051
243638798 8.28026 0.811305 0.33498
243738798 8.28917 0.81389 0.324257
243838798 8.29808 0.816392 0.313863
243938798 8.307 0.818813 0.303799
244038798 8.31591 0.821156 0.294047
244138798 8.32482 0.823423 0.2846
244238798 8.33374 0.825616 0.275454
244338798 8.34265 0.827739 0.266597
244438798 8.35156 0.829793 0.258019
244538798 8.36047 0.831775 0.249557
244638798 8.36939 0.833698 0.241618
244738798 8.3783 0.835558 0.23381
244838798 8.38721 0.837359 0.226257
244938798 8.39613 0.839101 0.218973
245038798 8.40504 0.840787 0.2119
245138798 8.41395 0.842417 0.205056
245238798 8.42286 0.843995 0.198431
245338798 8.43178 0.845523 0.192034
245438798 8.44069 0.847001 0.185835
245538798 8.4496 0.848431 0.179833
245638798 8.45851 0.849815 0.174026
245738798 8.46743 0.851155 0.168408
245838798 8.47634 0.852451 0.162968
245938798 8.48525 0.853705 0.157706
246038798 8.49417 0.854919 0.152611
246138798 8.50308 0.856093 0.147682
246238798 8.51199 0.85723 0.142913
246338798 8.5209 0.858329 0.138295
246438798 8.52982 0.859394 0.133832
246538798 8.53873 0.860424 0.129507
246638798 8.54764 0.86142 0.125322
246738798 8.55655 0.862385 0.121276
246838798 8.56547 0.863318 0.117358
246938798 8.57438 0.864221 0.113566
247038798 8.58329 0.865095 0.109896
247138798 8.5922 0.865941 0.106346
247238798 8.60112 0.866759 0.102913
247338798 8.61003 0.867551 0.0995856
247438798 8.61894 0.868317 0.09637
247538798 8.62786 0.869059 0.0932545
247638798 8.63677 0.869776 0.0902428
247738798 8.64568 0.870471 0.0873265
247838798 8.65459 0.871143 0.0845056
247938798 8.66351 0.871793 0.0817768
248038798 8.67242 0.872422 0.0791335
248138798 8.68133 0.873031 0.0765771
248238798 8.69024 0.87362 0.0741017
248338798 8.69916 0.874191 0.0717081
248438798 8.70807 0.874742 0.0693918
248538798 8.71698 0.875276 0.0671485
248638798 8.72589 0.875793 0.0649799
248738798 8.73481 0.876293 0.0628805
248838798 8.74372 0.876777 0.0608484
248938798 8.75263 0.877245 0.058882
249038798 8.76155 0.877698 0.0569829
249138798 8.77046 0.878137 0.0551394
249238798 8.77937 0.878561 0.053358
249338798 8.78828 0.878972 0.0516338
249438798 8.7972 0.879369 0.0499646
249538798 8.80611 0.879753 0.04835
249638798 8.81502 0.880125 0.0467901
249738798 8.82393 0.880485 0.0452769
249838798 8.83285 0.880834 0.0438138
249938798 8.84176 0.881171 0.0423997
250038798 8.85067 0.881497 0.0410276
250138798 8.85958 0.881813 0.0397037
250238798 8.8685 0.882118 0.0384184
250338798 8.87741 0.882414 0.0371802
250438798 8.88632 0.8827 0.0359772
250538798 8.89524 0.882977 0.0348137
250638798 8.90415 0.883245 0.03369
250738798 8.91306 0.883504 0.0326042
250838798 8.92197 0.883755 0.0315476
250938798 8.93089 0.883998 0.0305271
251038798 8.9398 0.884233 0.0295453
251138798 8.94871 0.88446 0.0285877
251238798 8.95763 0.88468 0.0276623
251338798 8.96654 0.884893 0.0267717
251438798 8.97545 0.885099 0.0259077
251538798 8.98436 0.885298 0.0250652
251638798 8.99328 0.885491 0.0242602
251738798 9.00219 0.885678 0.0234765
251838798 9.0111 0.885858 0.0227147
251938798 9.02001 0.886033 0.0219843
252038798 9.02893 0.886202 0.0212725
252138798 9.03784 0.886366 0.0205843
252238798 9.04675 0.886524 0.01992
252338798 9.05566 0.886678 0.019276
252438798 9.06458 0.886826 0.0186544
252538798 9.07349 0.88697 0.0180514
252638798 9.0824 0.887108 0.0174674
252738798 9.09131 0.887243 0.0169021
252838798 9.10023 0.887373 0.0163565
252938798 9.10914 0.887499 0.0158289
253038798 9.11805 0.887621 0.0153191
253138798 9.12697 0.887738 0.0148213
253238798 9.13588 0.887853 0.0143448
253338798 9.14479 0.887963 0.0138811
253438798 9.1537 0.88807 0.0134307
253538798 9.16262 0.888173 0.0129977
253638798 9.17153 0.888273 0.0125756
253738798 9.18044 0.88837 0.0121713
253838798 9.18935 0.888463 0.0117767
253938798 9.19827 0.888554 0.0113973
254038798 9.20718 0.888642 0.0110286
254138798 9.21609 0.888727 0.0106724
254238798 9.22501 0.888809 0.0103277
254338798 9.23392 0.888888 0.00999538
254438798 9.24283 0.888965 0.00967031
254538798 9.25174 0.88904 0.00935858
254638798 9.26066 0.889112 0.00905695
254738798 9.26957 0.889181 0.008763
254838798 9.27848 0.889249 0.00847868
254938798 9.28739 0.889314 0.00820677
255038798 9.29631 0.889377 0.00794044
255138798 9.30522 0.889438 0.00768472
255238798 9.31413 0.889497 0.00743615
255338798 9.32304 0.889555 0.00719713
255438798 9.33196 0.88961 0.00696309
255538798 9.34087 0.889663 0.00673817
255638798 9.34978 0.889715 0.00651916
255738798 9.3587 0.889765 0.00631072
255838798 9.36761 0.889814 0.00610868
255938798 9.37652 0.889861 0.00590864
256038798 9.38543 0.889906 0.00571892
256138798 9.39435 0.889951 0.00553388
256238798 9.40326 0.889993 0.00535494
256338798 9.41217 0.890034 0.00518128
256438798 9.42108 0.890074 0.00501348
256538798 9.43 0.890113 0.00485186
256638798 9.43891 0.89015 0.00469641
256738798 9.44782 0.890186 0.00454181
256838798 9.45673 0.890221 0.00439792
256938798 9.46565 0.890255 0.00425291
257038798 9.47456 0.890288 0.00411793
257138798 9.48347 0.890319 0.00398413
257238798 9.49239 0.89035 0.00385658
257338798 9.5013 0.89038 0.00373153
257438798 9.51021 0.890408 0.00360896
257538798 9.51912 0.890436 0.00349291
257638798 9.52804 0.890463 0.0033816
257738798 9.53695 0.890489 0.00327186
257838798 9.54586 0.890514 0.00316718
257938798 9.55477 0.890539 0.00306349
258038798 9.56369 0.890562 0.00296542
258138798 9.5726 0.890585 0.00287026
258238798 9.58151 0.890607 0.00277378
258338798 9.59042 0.890629 0.00268836
258438798 9.59934 0.890649 0.00260055
258538798 9.60825 0.890669 0.00251458
258638798 9.61716 0.890689 0.00243494
258738798 9.62608 0.890707 0.00235675
258838798 9.63499 0.890725 0.00228096
258938798 9.6439 0.890743 0.00220587
259038798 9.65281 0.89076 0.00213562
259138798 9.66173 0.890776 0.00206549
259238798 9.67064 0.890792 0.00199864
259338798 9.67955 0.890808 0.00193386
259438798 9.68847 0.890822 0.00187043
259538798 9.69738 0.890837 0.00181239
259638798 9.70629 0.890851 0.00175285
259738798 9.7152 0.890864 0.00169647
259838798 9.72412 0.890877 0.00164185
259938798 9.73303 0.89089 0.00158809
260038798 9.74194 0.890902 0.00153577
260153542 9.75085 0.876599 -0.31045
260268285 9.75977 0.874821 -0.11555
260383028 9.76868 0.87282 -0.149735
260497772 9.77759 0.870565 -0.193058
260612515 9.7865 0.868028 -0.169853
260727258 9.79542 0.865172 -0.19039
260842002 9.80433 0.861956 -0.208386
260956745 9.81324 0.858339 -0.220972
261071489 9.82215 0.856056 -0.204684
261207004 9.83107 0.838828 -0.476329
261342520 9.83998 0.834579 -0.303889
261478036 9.84889 0.83008 -0.329211
261613551 9.85781 0.825338 -0.364855
261749067 9.86672 0.820358 -0.341357
261884583 9.87563 0.815158 -0.354784
262020098 9.88454 0.809761 -0.364814
262177825 9.89346 0.792396 -0.540466
262335551 9.90237 0.786593 -0.407003
262493278 9.91128 0.780594 -0.423151
262651004 9.92019 0.774409 -0.440694
262808731 9.92911 0.768042 -0.418623
262966457 9.93802 0.761503 -0.424262
263124183 9.94693 0.754797 -0.427199
263305471 9.95584 0.738746 -0.538867
263486760 9.96476 0.732039 -0.440067
263668048 9.97367 0.72522 -0.445567
263849336 9.98258 0.718298 -0.451578
264030624 9.9915 0.711285 -0.431025
264236731 10.0004 0.69679 -0.50786
264442838 10.0093 0.6887 -0.445734
264648946 10.0182 0.680438 -0.446373
264855053 10.0271 0.67315 -0.438394
265061160 10.0361 0.665789 -0.421913
265293247 10.045 0.652309 -0.471871
265525334 10.0539 0.644061 -0.421898
265757420 10.0628 0.635658 -0.419435
265989507 10.0717 0.628016 -0.410615
266221593 10.0806 0.620431 -0.394695
266480717 10.0895 0.607921 -0.426879
266739840 10.0984 0.599768 -0.386712
266998963 10.1074 0.591515 -0.381693
267258086 10.1163 0.583916 -0.372138
267545196 10.1252 0.572206 -0.387093
267832307 10.1341 0.564275 -0.354294
268119417 10.143 0.556307 -0.347758
268435355 10.1519 0.544751 -0.363729
268751293 10.1608 0.536855 -0.328928
269067230 10.1697 0.528991 -0.322331
269412722 10.1787 0.518159 -0.332128
269758213 10.1876 0.50994 -0.305323
270103705 10.1965 0.502156 -0.296267
270479360 10.2054 0.491802 -0.302337
270855015 10.2143 0.483739 -0.279642
271230670 10.2232 0.476112 -0.270317
271636979 10.2321 0.466282 -0.273559
272043289 10.2411 0.458443 -0.254111
272480622 10.25 0.449034 -0.253286
272917955 10.2589 0.441421 -0.23876
273355289 10.2678 0.433829 -0.229938
273823894 10.2767 0.424882 -0.228226
274292498 10.2856 0.417525 -0.213481
274792498 10.2945 0.408709 -0.211993
275292498 10.3034 0.401512 -0.199408
275823894 10.3124 0.393079 -0.195894
276355289 10.3213 0.386085 -0.184729
276917955 10.3302 0.378003 -0.180918
277480622 10.3391 0.371024 -0.171391
278074313 10.348 0.363257 -0.166965
278698658 10.3569 0.355553 -0.16067
279323003 10.3658 0.348908 -0.151362
279977511 10.3747 0.34151 -0.148006
280632020 10.3837 0.335064 -0.139632
281316082 10.3926 0.327951 -0.135745
282028971 10.4015 0.321036 -0.130096
282769848 10.4104 0.314197 -0.124445
283510725 10.4193 0.308065 -0.118265
284278639 10.4282 0.3016 -0.11425
285072531 10.4371 0.295211 -0.109357
285891243 10.446 0.288998 -0.104439
286709955 10.455 0.28324 -0.0995948
287552229 10.4639 0.277271 -0.0960664
288416713 10.4728 0.27146 -0.0918286
289301970 10.4817 0.265815 -0.087813
290206478 10.4906 0.260266 -0.0842641
291128642 10.4995 0.254864 -0.0806226
292066795 10.5084 0.249615 -0.0771633
293019209 10.5173 0.244514 -0.0739016
293984097 10.5263 0.239522 -0.070856
294948985 10.5352 0.234803 -0.067706
295924514 10.5441 0.230095 -0.0651812
296908805 10.553 0.225529 -0.0625347
297899949 10.5619 0.221108 -0.0600055
298896006 10.5708 0.216833 -0.05766
299895020 10.5797 0.212702 -0.0553872
300895020 10.5886 0.208715 -0.0532317
301894033 10.5976 0.204875 -0.0511789
302890090 10.6065 0.201167 -0.049256
303881234 10.6154 0.197607 -0.0473976
304865526 10.6243 0.194195 -0.0456243
305841054 10.6332 0.190932 -0.0439303
306805942 10.6421 0.18782 -0.0423004
307758356 10.651 0.184861 -0.040731
308696509 10.6599 0.182057 -0.0392122
309618673 10.6689 0.179411 -0.0377351
310523181 10.6778 0.176928 -0.0362843
311408438 10.6867 0.17461 -0.0348514
312272922 10.6956 0.172465 -0.0334226
313115196 10.7045 0.170496 -0.0319826
313933908 10.7134 0.168711 -0.0305143
314752620 10.7223 0.166693 -0.0301442
315546513 10.7312 0.165197 -0.0278687
316314426 10.7402 0.163896 -0.0263704
317055303 10.7491 0.162796 -0.0248062
317768192 10.758 0.16191 -0.0228699
318481082 10.7669 0.16059 -0.0231387
319165144 10.7758 0.16001 -0.0198222
319819653 10.7847 0.159658 -0.0178032
320474161 10.7936 0.158779 -0.0185497
321098506 10.8025 0.158799 -0.0139636
321692197 10.8115 0.159083 -0.0113821
322285888 10.8204 0.158619 -0.0129282
322848554 10.8293 0.159242 -0.00679866
323411221 10.8382 0.159074 -0.00852582
323942616 10.8471 0.160122 -0.00213205
324474011 10.856 0.16018 -0.0040912
324974011 10.8649 0.161672 0.00377055
325474011 10.8739 0.162031 0.00118224
325942616 10.8828 0.163892 0.0101452
326411221 10.8917 0.164551 0.00729095
326848554 10.9006 0.166915 0.0181661
327285888 10.9095 0.167895 0.0145029
327692197 10.9184 0.170812 0.0279367
328098506 10.9273 0.172141 0.0233283
328474161 10.9362 0.175687 0.0400414
328849816 10.9452 0.177394 0.0341867
329225471 10.9541 0.179081 0.0356208
329570963 10.963 0.183487 0.0593403
329916454 10.9719 0.185558 0.0472772
330261946 10.9808 0.187766 0.0515355
330577884 10.9897 0.192902 0.0801775
330893821 10.9986 0.195497 0.065284
331209759 11.0075 0.197973 0.0688432
331496869 11.0165 0.204087 0.106806
331783980 11.0254 0.207212 0.0874485
332071090 11.0343 0.210178 0.0915994
332330213 11.0432 0.217446 0.141589
332589336 11.0521 0.221156 0.115953
332848460 11.061 0.224688 0.121358
333107583 11.0699 0.228337 0.129931
333339669 11.0788 0.237141 0.186647
333571756 11.0878 0.241273 0.153989
333803843 11.0967 0.24553 0.163504
334035929 11.1056 0.24995 0.173639
334242037 11.1145 0.260063 0.245452
334448144 11.1234 0.264926 0.204642
334654251 11.1323 0.269956 0.216943
334860359 11.1412 0.275158 0.229859
335066466 11.1501 0.279911 0.220506
335247754 11.1591 0.292141 0.33548
335429042 11.168 0.297967 0.276807
335610330 11.1769 0.303969 0.29097
335791618 11.1858 0.309458 0.301499
335972906 11.1947 0.315024 0.29408
336154194 11.2036 0.320657 0.299324
336311921 11.2125 0.335525 0.459375
336469647 11.2214 0.342477 0.373388
336627373 11.2304 0.348769 0.382752
336785100 11.2393 0.355119 0.404523
336942826 11.2482 0.361513 0.391515
337100553 11.2571 0.368019 0.397826
337236068 11.266 0.386221 0.634256
337371584 11.2749 0.394416 0.507077
337507100 11.2838 0.401777 0.520593
337642616 11.2927 0.40919 0.552228
337778131 11.3017 0.416743 0.534318
337913647 11.3106 0.424445 0.54388
338049163 11.3195 0.432312 0.552729
338163906 11.3284 0.455232 0.907107
338278649 11.3373 0.463858 0.688881
338393393 11.3462 0.472538 0.726283
338508136 11.3551 0.481384 0.773301
338622880 11.364 0.490407 0.743715
338737623 11.373 0.499616 0.761466
338852366 11.3819 0.509012 0.774346
338967110 11.3908 0.518599 0.778753
339081853 11.3997 0.526521 0.751239
339181853 11.4086 0.548668 1.12977
339281853 11.4175 0.558184 0.902848
339381853 11.4264 0.567785 0.935966
339481853 11.4354 0.577457 0.98395
339581853 11.4443 0.587187 0.948943
339681853 11.4532 0.596959 0.96151
339781853 11.4621 0.606754 0.968474
339881853 11.471 0.616783 0.970459
339981853 11.4799 0.625297 0.937968
340081853 11.4888 0.633686 0.928953
340181853 11.4977 0.641924 0.915286
340281853 11.5067 0.649982 0.897012
340381853 11.5156 0.657832 0.881548
340481853 11.5245 0.665441 0.863688
340581853 11.5334 0.672777 0.843961
340681853 11.5423 0.679776 0.822278
340781853 11.5512 0.686586 0.802728
340881853 11.5601 0.693198 0.782552
340981853 11.569 0.699607 0.762122
341081853 11.578 0.70581 0.741929
341181853 11.5869 0.711808 0.721586
341281853 11.5958 0.717604 0.701304
341381853 11.6047 0.723207 0.681292
341481853 11.6136 0.728636 0.66177
341581853 11.6225 0.733892 0.642497
341681853 11.6314 0.738979 0.623559
341781853 11.6403 0.743901 0.604995
341881853 11.6493 0.748662 0.586796
341981853 11.6582 0.753269 0.569005
342081853 11.6671 0.757727 0.55165
342181853 11.676 0.762042 0.534738
342281853 11.6849 0.766217 0.51824
342381853 11.6938 0.770258 0.502174
342481853 11.7027 0.774168 0.486535
342581853 11.7116 0.777951 0.471322
342681853 11.7206 0.781612 0.456537
342781853 11.7295 0.785155 0.442174
342881853 11.7384 0.788584 0.428222
342981853 11.7473 0.791902 0.414678
343081853 11.7562 0.795112 0.401533
343181853 11.7651 0.798219 0.388778
343281853 11.774 0.801226 0.376408
343381853 11.7829 0.804135 0.364411
343481853 11.7919 0.80695 0.352784
343581853 11.8008 0.809675 0.341508
343681853 11.8097 0.812311 0.330583
343781853 11.8186 0.814862 0.319997
343881853 11.8275 0.817331 0.30974
343981853 11.8364 0.81972 0.299804
344081853 11.8453 0.822031 0.290179
344181853 11.8542 0.824268 0.280857
344281853 11.8632 0.826433 0.271829
344381853 11.8721 0.828528 0.263088
344481853 11.881 0.830555 0.254622
344581853 11.8899 0.832517 0.246426
344681853 11.8988 0.834415 0.23849
344781853 11.9077 0.836252 0.230808
344881853 11.9166 0.83803 0.223371
344981853 11.9255 0.83975 0.216173
345081853 11.9345 0.841414 0.209199
345181853 11.9434 0.843025 0.202456
345281853 11.9523 0.844584 0.195926
345381853 11.9612 0.846092 0.189606
345481853 11.9701 0.847552 0.183486
345581853 11.979 0.848964 0.177567
345681853 11.9879 0.850331 0.171837
345781853 11.9969 0.851654 0.166288
345881853 12.0058 0.852934 0.160924
345981853 12.0147 0.854173 0.155728
346081853 12.0236 0.855371 0.150697
346181853 12.0325 0.856531 0.145831
346281853 12.0414 0.857653 0.141127
346381853 12.0503 0.858739 0.136564
346481853 12.0592 0.85979 0.132158
346581853 12.0682 0.860807 0.127888
346681853 12.0771 0.861792 0.123757
346781853 12.086 0.862744 0.119761
346881853 12.0949 0.863666 0.115892
346981853 12.1038 0.864558 0.112149
347081853 12.1127 0.865421 0.108528
347181853 12.1216 0.866256 0.105018
347281853 12.1305 0.867064 0.101627
347381853 12.1395 0.867846 0.0983452
347481853 12.1484 0.868603 0.0951671
347581853 12.1573 0.869335 0.0920941
347681853 12.1662 0.870044 0.0891174
347781853 12.1751 0.870729 0.0862392
347881853 12.184 0.871393 0.0834527
347981853 12.1929 0.872035 0.0807564
348081853 12.2018 0.872657 0.0781468
348181853 12.2108 0.873258 0.0756211
348281853 12.2197 0.87384 0.0731791
348381853 12.2286 0.874403 0.0708174
348481853 12.2375 0.874948 0.0685251
348581853 12.2464 0.875475 0.0663134
348681853 12.2553 0.875986 0.0641723
348781853 12.2642 0.876479 0.0620974
348881853 12.2731 0.876957 0.0600917
348981853 12.2821 0.877419 0.0581505
349081853 12.291 0.877867 0.0562704
349181853 12.2999 0.8783 0.0544539
349281853 12.3088 0.878719 0.0526939
349381853 12.3177 0.879125 0.0509922
349481853 12.3266 0.879517 0.0493425
349581853 12.3355 0.879896 0.0477494
349681853 12.3444 0.880264 0.0462053
349781853 12.3534 0.880619 0.0447137
349881853 12.3623 0.880964 0.0432709
349981853 12.3712 0.881297 0.0418713
350081853 12.3801 0.881619 0.040517
350181853 12.389 0.88193 0.03921
350281853 12.3979 0.882232 0.0379425
350381853 12.4068 0.882524 0.0367155
350481853 12.4157 0.882807 0.0355314
350581853 12.4247 0.88308 0.0343818
350681853 12.4336 0.883345 0.0332728
350781853 12.4425 0.883601 0.0321951
350881853 12.4514 0.883848 0.0311552
350981853 12.4603 0.884088 0.0301482
351081853 12.4692 0.88432 0.0291742
351181853 12.4781 0.884545 0.0282335
351281853 12.487 0.884762 0.0273213
351381853 12.496 0.884972 0.0264365
351481853 12.5049 0.885175 0.0255833
351581853 12.5138 0.885372 0.0247557
351681853 12.5227 0.885563 0.0239567
351781853 12.5316 0.885747 0.0231828
351881853 12.5405 0.885926 0.0224343
351981853 12.5494 0.886098 0.0217093
352081853 12.5583 0.886265 0.0210083
352181853 12.5673 0.886427 0.0203293
352281853 12.5762 0.886583 0.0196714
352381853 12.5851 0.886735 0.0190376
352481853 12.594 0.886881 0.0184188
352581853 12.6029 0.887023 0.0178281
352681853 12.6118 0.88716 0.0172486
352781853 12.6207 0.887293 0.0166937
352881853 12.6296 0.887421 0.016153
352981853 12.6386 0.887546 0.0156323
353081853 12.6475 0.887666 0.0151262
353181853 12.6564 0.887782 0.014636
353281853 12.6653 0.887895 0.0141677
353381853 12.6742 0.888004 0.0137051
353481853 12.6831 0.888109 0.0132664
353581853 12.692 0.888211 0.0128368
353681853 12.701 0.88831 0.0124207
353781853 12.7099 0.888406 0.0120198
353881853 12.7188 0.888498 0.0116321
353981853 12.7277 0.888588 0.0112549
354081853 12.7366 0.888674 0.0108911
354181853 12.7455 0.888758 0.0105403
354281853 12.7544 0.888839 0.0102006
354381853 12.7633 0.888918 0.00986653
354481853 12.7723 0.888994 0.00955103
354581853 12.7812 0.889067 0.00924251
354681853 12.7901 0.889138 0.00894365
354781853 12.799 0.889207 0.00865358
354881853 12.8079 0.889274 0.00837543
354981853 12.8168 0.889338 0.00810487
355081853 12.8257 0.889401 0.0078414
355181853 12.8346 0.889461 0.00759013
355281853 12.8436 0.889519 0.00734558
355381853 12.8525 0.889576 0.00710754
355481853 12.8614 0.88963 0.00687585
355581853 12.8703 0.889683 0.00665277
355681853 12.8792 0.889735 0.00643876
355781853 12.8881 0.889784 0.00623447
355881853 12.897 0.889832 0.00602962
355981853 12.9059 0.889879 0.00583674
356081853 12.9149 0.889923 0.00564543
356181853 12.9238 0.889967 0.00546478
356281853 12.9327 0.890009 0.00528834
356381853 12.9416 0.89005 0.005116
356481853 12.9505 0.890089 0.00495396
356581853 12.9594 0.890127 0.00479102
356681853 12.9683 0.890164 0.00463702
356781853 12.9772 0.8902 0.0044876
356881853 12.9862 0.890234 0.00434319
356981853 12.9951 0.890268 0.00420341
357081853 13.004 0.8903 0.00406533
357181853 13.0129 0.890331 0.00393565
357281853 13.0218 0.890361 0.0038078
357381853 13.0307 0.890391 0.00368479
357481853 13.0396 0.890419 0.00356555
357581853 13.0485 0.890447 0.00345076
357681853 13.0575 0.890473 0.00333925
357781853 13.0664 0.890499 0.00323061
357881853 13.0753 0.890524 0.00312832
357981853 13.0842 0.890548 0.00302546
358081853 13.0931 0.890571 0.00292846
358181853 13.102 0.890594 0.00283253
358281853 13.1109 0.890615 0.00274189
358381853 13.1198 0.890637 0.0026543
358481853 13.1288 0.890657 0.00256721
358581853 13.1377 0.890677 0.00248419
358681853 13.1466 0.890696 0.00240493
358781853 13.1555 0.890714 0.0023259
358881853 13.1644 0.890732 0.00225444
358981853 13.1733 0.89075 0.0021766
359081853 13.1822 0.890766 0.00210839
359181853 13.1911 0.890782 0.00203918
359281853 13.2001 0.890798 0.00197423
359381853 13.209 0.890813 0.00191066
359481853 13.2179 0.890828 0.00184824
359581853 13.2268 0.890842 0.00179123
359681853 13.2357 0.890856 0.00172879
359781853 13.2446 0.890869 0.00167591
359881853 13.2535 0.890882 0.0016217
359981853 13.2625 0.890895 0.00156818
360081853 13.2714 0.890907 0.00151876
360196596 13.2803 0.876604 -0.310451
360311340 13.2892 0.874825 -0.1156
360426083 13.2981 0.872824 -0.149738
360540827 13.307 0.870569 -0.193075
360655570 13.3159 0.868032 -0.169873
360770313 13.3248 0.865176 -0.190403
360885057 13.3338 0.86196 -0.2084
360999800 13.3427 0.858343 -0.220987
361114543 13.3516 0.85606 -0.204682
361250059 13.3605 0.838831 -0.476357
361385575 13.3694 0.834582 -0.303893
361521090 13.3783 0.830084 -0.329209
361656606 13.3872 0.82534 -0.364884
361792122 13.3961 0.820361 -0.341358
361927638 13.4051 0.815161 -0.354791
362063153 13.414 0.809764 -0.364826
362220880 13.4229 0.792399 -0.540475
362378606 13.4318 0.786596 -0.40701
362536333 13.4407 0.780597 -0.423158
362694059 13.4496 0.774411 -0.440703
362851785 13.4585 0.768045 -0.418622
363009512 13.4674 0.761505 -0.424279
363190800 13.4764 0.745618 -0.539984
363372088 13.4853 0.7376 -0.456294
363553376 13.4942 0.730751 -0.449599
363734664 13.5031 0.72377 -0.457734
363915952 13.512 0.716667 -0.438864
364097240 13.5209 0.709448 -0.436088
364303347 13.5298 0.694724 -0.511777
364509455 13.5387 0.686376 -0.447939
364715562 13.5477 0.678971 -0.438771
364921669 13.5566 0.671642 -0.438516
365127777 13.5655 0.664253 -0.42093
365359863 13.5744 0.650763 -0.469867
365591950 13.5833 0.642525 -0.421068
365824037 13.5922 0.63416 -0.418077
366056123 13.6011 0.626589 -0.4088
366315246 13.61 0.614107 -0.432411
366574370 13.619 0.605999 -0.393048
366833493 13.6279 0.597794 -0.387728
367092616 13.6368 0.589487 -0.383446
367379726 13.6457 0.577636 -0.394244
367666837 13.6546 0.569525 -0.361983
367953947 13.6635 0.561446 -0.355267
368241057 13.6724 0.553303 -0.348778
368556995 13.6813 0.542161 -0.354667
368872933 13.6903 0.534182 -0.327821
369188870 13.6992 0.52623 -0.320736
369534362 13.7081 0.515307 -0.32985
369879853 13.717 0.507516 -0.300979
370225345 13.7259 0.499764 -0.293979
370601000 13.7348 0.489465 -0.299745
370976655 13.7437 0.481485 -0.276781
371352310 13.7526 0.473901 -0.268102
371758619 13.7616 0.464128 -0.271287
372164929 13.7705 0.456365 -0.251807
372602262 13.7794 0.447053 -0.251035
373039596 13.7883 0.439495 -0.236737
373508200 13.7972 0.430261 -0.234156
373976805 13.8061 0.42286 -0.219964
374445410 13.815 0.415532 -0.21181
374945410 13.8239 0.406743 -0.210426
375445410 13.8329 0.39957 -0.196415
375976805 13.8418 0.391155 -0.194256
376508200 13.8507 0.384167 -0.183146
377070867 13.8596 0.376086 -0.17936
377664558 13.8685 0.36828 -0.172063
378258248 13.8774 0.361457 -0.162372
378882593 13.8863 0.353776 -0.159204
379506938 13.8953 0.347156 -0.149921
380161447 13.9042 0.339781 -0.146041
380845509 13.9131 0.332624 -0.139948
381529571 13.922 0.326181 -0.132524
382242461 13.9309 0.319285 -0.128814
382983338 13.9398 0.31257 -0.122979
383724215 13.9487 0.306459 -0.1167
384492128 13.9576 0.300015 -0.113103
385286021 13.9666 0.293648 -0.108246
386104733 13.9755 0.287456 -0.10342
386947006 13.9844 0.281429 -0.0990806
387789280 13.9933 0.275835 -0.094291
388653764 14.0022 0.270064 -0.0908874
389539021 14.0111 0.264448 -0.0869237
390443529 14.02 0.258929 -0.0832803
391365693 14.0289 0.253557 -0.0798354
392303846 14.0379 0.24834 -0.0764128
393256260 14.0468 0.243273 -0.0731832
394221148 14.0557 0.238352 -0.0701074
395196676 14.0646 0.233541 -0.0672559
396180968 14.0735 0.228874 -0.0644904
397172112 14.0824 0.224348 -0.0618772
398168169 14.0913 0.21997 -0.0593942
399167182 14.1002 0.215739 -0.0570295
400167182 14.1092 0.211653 -0.0547905
401166196 14.1181 0.207711 -0.0526669
402162253 14.127 0.203915 -0.0506517
403153397 14.1359 0.200267 -0.0487283
404137688 14.1448 0.196769 -0.0468953
405113217 14.1537 0.193423 -0.045143
406078105 14.1626 0.190231 -0.0434632
407030518 14.1715 0.187194 -0.0418479
407968672 14.1805 0.184314 -0.0402872
408906825 14.1894 0.181389 -0.0391933
409828989 14.1983 0.17878 -0.0374072
410733497 14.2072 0.17633 -0.0359937
411618754 14.2161 0.174042 -0.0346074
412483238 14.225 0.171922 -0.0331335
413325512 14.2339 0.169973 -0.0317179
414144224 14.2428 0.168202 -0.0302752
414938117 14.2518 0.166613 -0.0287843
415732009 14.2607 0.164766 -0.0285107
416499923 14.2696 0.163489 -0.0260498
417240799 14.2785 0.162413 -0.0244658
417953689 14.2874 0.16155 -0.0227841
418666579 14.2963 0.160254 -0.0228716
419350641 14.3052 0.159697 -0.0195639
420005149 14.3141 0.159369 -0.0175564
420629494 14.3231 0.159286 -0.0153307
421253839 14.332 0.158601 -0.0158553
421847530 14.3409 0.158912 -0.0108786
422441221 14.3498 0.158474 -0.0123592
423003887 14.3587 0.159124 -0.00688424
423535283 14.3676 0.160148 -0.00271311
424066678 14.3765 0.160205 -0.00522363
424566678 14.3854 0.161626 0.00339889
425066678 14.3944 0.161918 0.000327668
425535283 14.4033 0.163825 0.00980138
426003887 14.4122 0.16444 0.0066591
426441221 14.4211 0.166885 0.0181771
426878554 14.43 0.167855 0.0142054
427315887 14.4389 0.168819 0.0152675
427722197 14.4478 0.171841 0.0305056
428128506 14.4567 0.173118 0.0228516
428504161 14.4657 0.176755 0.0413633
428879816 14.4746 0.178371 0.034436
429255471 14.4835 0.180113 0.0362521
429600963 14.4924 0.184355 0.0587127
429946454 14.5013 0.186418 0.0472752
430291946 14.5102 0.188618 0.0514778
430607884 14.5191 0.193731 0.0798297
430923821 14.5281 0.196308 0.0650358
431239759 14.537 0.198752 0.0684253
431526869 14.5459 0.20484 0.106336
431813980 14.5548 0.207931 0.0868623
432101090 14.5637 0.210878 0.0910676
432360213 14.5726 0.218127 0.141
432619336 14.5815 0.221815 0.11532
432878460 14.5904 0.225326 0.120715
433137583 14.5994 0.228953 0.129256
433369669 14.6083 0.237737 0.185941
433601756 14.6172 0.241849 0.15327
433833842 14.6261 0.246089 0.162788
434065929 14.635 0.25049 0.172908
434272036 14.6439 0.260586 0.244705
434478144 14.6528 0.265432 0.203881
434684251 14.6617 0.270446 0.216186
434890359 14.6707 0.275632 0.229101
435096466 14.6796 0.280369 0.219752
435277754 14.6885 0.292584 0.33471
435459042 14.6974 0.298396 0.276039
435640330 14.7063 0.304385 0.290205
435821618 14.7152 0.309859 0.300737
436002906 14.7241 0.315413 0.293328
436160632 14.733 0.330214 0.455671
436318359 14.742 0.337036 0.370569
436476085 14.7509 0.34412 0.392173
436633812 14.7598 0.350562 0.406703
436791538 14.7687 0.357083 0.395723
436949265 14.7776 0.36367 0.403052
437106991 14.7865 0.370396 0.40799
437242507 14.7954 0.388846 0.642045
437378022 14.8043 0.396175 0.498488
437513538 14.8133 0.403567 0.523495
437649054 14.8222 0.410998 0.553091
437784570 14.8311 0.418553 0.533135
437920085 14.84 0.426237 0.544192
438055601 14.8489 0.434057 0.551873
438170344 14.8578 0.456898 0.904954
438285088 14.8667 0.465404 0.685573
438399831 14.8756 0.474058 0.724159
438514574 14.8846 0.48287 0.770653
438629318 14.8935 0.491853 0.740817
438744061 14.9024 0.501016 0.758557
438858805 14.9113 0.510363 0.771147
438973548 14.9202 0.519902 0.775464
439088291 14.9291 0.527777 0.74788
439188291 14.938 0.549888 1.1264
439288291 14.9469 0.559367 0.899406
439388291 14.9559 0.568929 0.932477
439488291 14.9648 0.578564 0.980436
439588291 14.9737 0.588257 0.945416
439688291 14.9826 0.597994 0.958003
439788291 14.9915 0.607756 0.965002
439888291 15.0004 0.617753 0.967039
439988291 15.0093 0.626236 0.934587
440088291 15.0182 0.634595 0.925621
440188291 15.0272 0.642803 0.912018
440288291 15.0361 0.650833 0.893802
440388291 15.045 0.658655 0.87841
440488291 15.0539 0.666237 0.860622
440588291 15.0628 0.673547 0.840964
440688291 15.0717 0.680522 0.819355
440788291 15.0806 0.687307 0.79988
440888291 15.0896 0.693896 0.779776
440988291 15.0985 0.700283 0.759421
441088291 15.1074 0.706465 0.739302
441188291 15.1163 0.712441 0.71903
441288291 15.1252 0.718216 0.698825
441388291 15.1341 0.7238 0.678879
441488291 15.143 0.72921 0.65943
441588291 15.1519 0.734447 0.640227
441688291 15.1609 0.739516 0.621354
441788291 15.1698 0.74442 0.602856
441888291 15.1787 0.749165 0.584723
441988291 15.1876 0.753755 0.566995
442088291 15.1965 0.758198 0.549703
442188291 15.2054 0.762497 0.53285
442288291 15.2143 0.766658 0.516412
442388291 15.2232 0.770685 0.5004
442488291 15.2322 0.774581 0.484817
442588291 15.2411 0.778351 0.46966
442688291 15.25 0.781999 0.454925
442788291 15.2589 0.78553 0.440612
442888291 15.2678 0.788946 0.426712
442988291 15.2767 0.792252 0.413214
443088291 15.2856 0.795452 0.400115
443188291 15.2945 0.798547 0.387408
443288291 15.3035 0.801543 0.375078
443388291 15.3124 0.804442 0.363125
443488291 15.3213 0.807248 0.351539
443588291 15.3302 0.809962 0.340303
443688291 15.3391 0.812589 0.329416
443788291 15.348 0.815131 0.318869
443888291 15.3569 0.817591 0.308648
443988291 15.3658 0.819972 0.298746
444088291 15.3748 0.822276 0.289155
444188291 15.3837 0.824505 0.279866
444288291 15.3926 0.826662 0.270872
444388291 15.4015 0.828749 0.26216
444488291 15.4104 0.830769 0.253724
444588291 15.4193 0.832724 0.245558
444688291 15.4282 0.834616 0.237649
444788291 15.4371 0.836446 0.229995
444888291 15.4461 0.838217 0.222582
444988291 15.455 0.839931 0.215409
445088291 15.4639 0.84159 0.208463
445188291 15.4728 0.843195 0.201745
445288291 15.4817 0.844749 0.195234
445388291 15.4906 0.846252 0.188938
445488291 15.4995 0.847706 0.18284
445588291 15.5084 0.849114 0.176942
445688291 15.5174 0.850476 0.17123
445788291 15.5263 0.851794 0.165705
445888291 15.5352 0.853069 0.160355
445988291 15.5441 0.854303 0.155178
446088291 15.553 0.855498 0.150168
446188291 15.5619 0.856653 0.145317
446288291 15.5708 0.857772 0.140627
446388291 15.5797 0.858854 0.136088
446488291 15.5887 0.859902 0.13169
446588291 15.5976 0.860915 0.127438
446688291 15.6065 0.861896 0.123321
446788291 15.6154 0.862845 0.119339
446888291 15.6243 0.863763 0.115482
446988291 15.6332 0.864652 0.111753
447088291 15.6421 0.865512 0.108145
447188291 15.651 0.866344 0.10465
447288291 15.66 0.867149 0.101267
447388291 15.6689 0.867929 0.0979989
447488291 15.6778 0.868683 0.0948319
447588291 15.6867 0.869412 0.091769
447688291 15.6956 0.870119 0.0888027
447788291 15.7045 0.870802 0.085938
447888291 15.7134 0.871463 0.0831581
447988291 15.7224 0.872103 0.0804712
448088291 15.7313 0.872722 0.0778728
448188291 15.7402 0.873322 0.0753557
448288291 15.7491 0.873901 0.072921
448388291 15.758 0.874463 0.0705661
448488291 15.7669 0.875006 0.0682851
448588291 15.7758 0.875531 0.0660816
448688291 15.7847 0.87604 0.0639433
448788291 15.7937 0.876532 0.0618795
448888291 15.8026 0.877008 0.0598812
448988291 15.8115 0.877469 0.0579435
449088291 15.8204 0.877914 0.0560726
449188291 15.8293 0.878346 0.0542611
449288291 15.8382 0.878763 0.0525093
449388291 15.8471 0.879167 0.0508094
449488291 15.856 0.879558 0.0491709
449588291 15.865 0.879937 0.0475812
449688291 15.8739 0.880303 0.0460432
449788291 15.8828 0.880657 0.0445549
449888291 15.8917 0.881 0.0431153
449988291 15.9006 0.881332 0.0417224
450088291 15.9095 0.881653 0.0403752
450188291 15.9184 0.881963 0.0390706
450288291 15.9273 0.882264 0.037809
450388291 15.9363 0.882555 0.0365859
450488291 15.9452 0.882837 0.0354048
450588291 15.9541 0.883109 0.0342603
450688291 15.963 0.883373 0.0331543
450788291 15.9719 0.883628 0.0320831
450888291 15.9808 0.883875 0.0310449
450988291 15.9897 0.884113 0.0300426
451088291 15.9986 0.884345 0.0290736
451188291 16.0076 0.884568 0.028134
451288291 16.0165 0.884785 0.0272245
451388291 16.0254 0.884994 0.0263438
451488291 16.0343 0.885197 0.0254944
451588291 16.0432 0.885393 0.0246676
451688291 16.0521 0.885583 0.0238725
451788291 16.061 0.885767 0.0231026
451888291 16.0699 0.885945 0.0223545
451988291 16.0789 0.886117 0.0216334
452088291 16.0878 0.886283 0.0209327
452188291 16.0967 0.886444 0.0202566
452288291 16.1056 0.8866 0.0196023
452388291 16.1145 0.886751 0.0189684
452488291 16.1234 0.886897 0.0183568
452588291 16.1323 0.887038 0.0177613
452688291 16.1412 0.887175 0.0171898
452788291 16.1502 0.887307 0.0166339
452888291 16.1591 0.887435 0.0160956
452988291 16.168 0.887559 0.0155771
453088291 16.1769 0.887679 0.0150719
453188291 16.1858 0.887795 0.0145869
453288291 16.1947 0.887907 0.0141151
453388291 16.2036 0.888015 0.0136569
453488291 16.2125 0.888121 0.0132178
453588291 16.2215 0.888222 0.0127902
453688291 16.2304 0.888321 0.0123774
453788291 16.2393 0.888416 0.0119777
453888291 16.2482 0.888508 0.0115917
453988291 16.2571 0.888597 0.0112141
454088291 16.266 0.888684 0.0108547
454188291 16.2749 0.888767 0.0105016
454288291 16.2838 0.888848 0.0101624
454388291 16.2928 0.888926 0.00983451
454488291 16.3017 0.889002 0.00951825
454588291 16.3106 0.889075 0.00920934
454688291 16.3195 0.889146 0.00891174
454788291 16.3284 0.889214 0.00862355
454888291 16.3373 0.889281 0.00834423
454988291 16.3462 0.889345 0.00807603
455088291 16.3552 0.889407 0.00781517
455188291 16.3641 0.889467 0.00756299
455288291 16.373 0.889526 0.00731761
455388291 16.3819 0.889582 0.00708164
455488291 16.3908 0.889636 0.00685189
455588291 16.3997 0.889689 0.00663146
455688291 16.4086 0.88974 0.00641726
455788291 16.4175 0.889789 0.00621036
455888291 16.4265 0.889837 0.00600732
455988291 16.4354 0.889883 0.00581605
456088291 16.4443 0.889928 0.0056268
456188291 16.4532 0.889972 0.00544753
456288291 16.4621 0.890013 0.00526863
456388291 16.471 0.890054 0.00510025
456488291 16.4799 0.890093 0.00493337
456588291 16.4888 0.890131 0.00477515
456688291 16.4978 0.890168 0.00462211
456788291 16.5067 0.890203 0.00447104
456888291 16.5156 0.890238 0.00432579
456988291 16.5245 0.890271 0.00418748
457088291 16.5334 0.890303 0.00405286
457188291 16.5423 0.890335 0.00392235
457288291 16.5512 0.890365 0.00379367
457388291 16.5601 0.890394 0.00367111
457488291 16.5691 0.890422 0.00355341
457588291 16.578 0.890449 0.00343707
457688291 16.5869 0.890476 0.00332937
457788291 16.5958 0.890502 0.00321982
457888291 16.6047 0.890526 0.00311417
457988291 16.6136 0.89055 0.0030149
458088291 16.6225 0.890574 0.00291774
458188291 16.6314 0.890596 0.00282367
458288291 16.6404 0.890618 0.00273249
458388291 16.6493 0.890639 0.00264335
458488291 16.6582 0.890659 0.00255806
458588291 16.6671 0.890679 0.00247496
458688291 16.676 0.890698 0.00239574
458788291 16.6849 0.890716 0.002319
458888291 16.6938 0.890734 0.00224255
458988291 16.7027 0.890751 0.00216961
459088291 16.7117 0.890781 0.00241353
459188291 16.7206 0.890798 0.00214783
459288291 16.7295 0.890816 0.00211674
459388291 16.7384 0.890833 0.00209795
459488291 16.7473 0.890849 0.00201164
459588291 16.7562 0.890866 0.00197203
459688291 16.7651 0.890883 0.00193585
459788291 16.7741 0.890899 0.00188976
459888291 16.783 0.890914 0.0018222
459988291 16.7919 0.890928 0.00177362
460088291 16.8008 0.890943 0.00172193
460203035 16.8097 0.876639 -0.310304
460317778 16.8186 0.874864 -0.115385
460432521 16.8275 0.872864 -0.149572
460547265 16.8365 0.87061 -0.192907
460662008 16.8454 0.868075 -0.169704
460776752 16.8543 0.865219 -0.190266
460891495 16.8632 0.862007 -0.208218
461006238 16.8721 0.85839 -0.220855
461141754 16.881 0.841223 -0.471518
461277270 16.8899 0.837018 -0.302723
461412785 16.8988 0.832538 -0.331421
461548301 16.9078 0.827779 -0.364221
461683817 16.9167 0.822742 -0.342516
461819332 16.9256 0.817432 -0.357483
461954848 16.9345 0.81186 -0.368855
462090364 16.9434 0.806044 -0.37451
462248090 16.9523 0.790069 -0.528422
462405817 16.9612 0.7842 -0.410974
462563543 16.9702 0.778158 -0.424243
462721270 16.9791 0.771955 -0.439228
462878996 16.988 0.765607 -0.419228
463036723 16.9969 0.759128 -0.423362
463218011 17.0058 0.743356 -0.53796
463399299 17.0147 0.73552 -0.453197
463580587 17.0236 0.728701 -0.447661
463761875 17.0326 0.721764 -0.455371
463943163 17.0415 0.714714 -0.436269
464124451 17.0504 0.707559 -0.433494
464330558 17.0593 0.692903 -0.509066
464536665 17.0682 0.684624 -0.445119
464742773 17.0771 0.677283 -0.43597
464948880 17.086 0.670003 -0.435836
465154987 17.0949 0.662666 -0.418228
465387074 17.1039 0.649227 -0.467268
465619161 17.1128 0.641042 -0.41851
465851247 17.1217 0.632727 -0.415564
466083334 17.1306 0.625205 -0.406363
466342457 17.1395 0.612768 -0.430096
466601580 17.1484 0.604704 -0.39081
466860703 17.1573 0.596542 -0.385567
467119826 17.1663 0.588276 -0.381364
467406937 17.1752 0.576465 -0.392275
467694047 17.1841 0.568394 -0.360087
467981158 17.193 0.560352 -0.353455
468268268 17.2019 0.552245 -0.347041
468584206 17.2108 0.541139 -0.35303
468900143 17.2197 0.533194 -0.326254
469216081 17.2287 0.525275 -0.319241
469561573 17.2376 0.514383 -0.328446
469907064 17.2465 0.506623 -0.299639
470252556 17.2554 0.498901 -0.292705
470628211 17.2643 0.48863 -0.29855
471003866 17.2732 0.480678 -0.275644
471410175 17.2821 0.470883 -0.276995
471816484 17.291 0.463094 -0.260721
472222794 17.3 0.455322 -0.251164
472660127 17.3089 0.445994 -0.250543
473097460 17.3178 0.438415 -0.23393
473566065 17.3267 0.429154 -0.233316
474034670 17.3356 0.42172 -0.21911
474534670 17.3445 0.412857 -0.215903
475034670 17.3534 0.405604 -0.203349
475566065 17.3624 0.397101 -0.199593
476097460 17.3713 0.389823 -0.188949
476660127 17.3802 0.381637 -0.184347
477222794 17.3891 0.374539 -0.174757
477816484 17.398 0.366678 -0.170118
478410175 17.4069 0.359797 -0.161278
479034520 17.4158 0.352243 -0.156786
479689028 17.4248 0.344751 -0.150664
480343537 17.4337 0.338207 -0.142177
481027599 17.4426 0.33102 -0.138675
481740489 17.4515 0.324034 -0.132377
482453379 17.4604 0.317721 -0.125446
483194255 17.4693 0.311011 -0.121767
483962169 17.4782 0.304383 -0.116475
484730082 17.4872 0.2984 -0.110399
485523975 17.4961 0.292132 -0.1069
486342687 17.505 0.285947 -0.10233
487184960 17.5139 0.279932 -0.09776
488049445 17.5228 0.274079 -0.0936727
488934701 17.5317 0.268322 -0.0897002
489819958 17.5406 0.262986 -0.0853527
490724466 17.5495 0.257543 -0.0822242
491646630 17.5585 0.2522 -0.0788042
492584784 17.5674 0.247003 -0.0754453
493537197 17.5763 0.241957 -0.0723632
494502085 17.5852 0.237059 -0.0693442
495477614 17.5941 0.232305 -0.0664701
496461905 17.603 0.227701 -0.0637374
497453049 17.6119 0.223213 -0.0612102
498449106 17.6209 0.218866 -0.0587643
499448120 17.6298 0.214666 -0.0564381
500448120 17.6387 0.210613 -0.0542358
501447133 17.6476 0.206706 -0.0521366
502443190 17.6565 0.202945 -0.0501424
503434334 17.6654 0.19933 -0.0482459
504418626 17.6743 0.195862 -0.0464399
505394154 17.6833 0.192545 -0.0447078
506359042 17.6922 0.189381 -0.0430467
507311456 17.7011 0.186372 -0.041448
508249609 17.71 0.183519 -0.0399015
509171773 17.7189 0.180827 -0.0383982
510076281 17.7278 0.178298 -0.0369266
510961538 17.7367 0.175937 -0.0354747
511846795 17.7456 0.173446 -0.0347336
512711279 17.7546 0.171361 -0.0328131
513553553 17.7635 0.169449 -0.0314323
514372264 17.7724 0.167714 -0.0300417
515166157 17.7813 0.166164 -0.0284535
515934071 17.7902 0.164806 -0.0269033
516701984 17.7991 0.163119 -0.0268402
517442861 17.808 0.162046 -0.024169
518155750 17.817 0.161212 -0.0224048
518839813 17.8259 0.160602 -0.0205831
519523875 17.8348 0.159496 -0.0208306
520178383 17.8437 0.159204 -0.017069
520802728 17.8526 0.159157 -0.014811
521427073 17.8615 0.158451 -0.0160051
522020764 17.8704 0.158788 -0.0105484
522583431 17.8794 0.159416 -0.00755294
523146097 17.8883 0.159192 -0.00952381
523677492 17.8972 0.160181 -0.00225342
524208888 17.9061 0.160266 -0.00443012
524708888 17.915 0.161715 0.00319492
525208888 17.9239 0.162035 0.000726942
525677492 17.9328 0.163976 0.0102288
526146097 17.9417 0.164625 0.00699713
526583431 17.9507 0.166976 0.0179291
527020764 17.9596 0.167949 0.0143516
527427073 17.9685 0.170866 0.027764
527833383 17.9774 0.17219 0.0231631
528239692 17.9863 0.1735 0.0243766
528615347 17.9952 0.177171 0.0432555
528991002 18.0041 0.17882 0.033675
529366657 18.0131 0.180594 0.0371355
529712149 18.022 0.184886 0.059572
530057640 18.0309 0.187003 0.0479161
530373578 18.0398 0.192037 0.0759893
530689516 18.0487 0.194518 0.0655003
531005453 18.0576 0.197146 0.068142
531292564 18.0665 0.203183 0.10498
531579674 18.0755 0.206229 0.0861745
531866784 18.0844 0.209433 0.0927257
532153895 18.0933 0.212501 0.0976864
532413018 18.1022 0.21988 0.140338
532672141 18.1111 0.223361 0.116266
532931264 18.12 0.226966 0.123356
533190387 18.1289 0.230693 0.130953
533422474 18.1378 0.239141 0.183642
533654561 18.1468 0.243255 0.153803
533886647 18.1557 0.247483 0.162643
534118734 18.1646 0.251856 0.172122
534324841 18.1735 0.261904 0.244026
534530949 18.1824 0.266722 0.203134
534737056 18.1913 0.271692 0.215102
534943163 18.2002 0.276816 0.227727
535149271 18.2092 0.281526 0.218611
535330559 18.2181 0.293711 0.333394
535511847 18.227 0.299489 0.274618
535693135 18.2359 0.305443 0.288765
535874423 18.2448 0.310886 0.299246
536055711 18.2537 0.316406 0.291785
536213437 18.2626 0.331177 0.454068
536371164 18.2716 0.337971 0.36897
536528890 18.2805 0.345027 0.390548
536686617 18.2894 0.351442 0.405062
536844343 18.2983 0.357936 0.394085
537002069 18.3072 0.364498 0.401427
537137585 18.3161 0.382777 0.637358
537273101 18.325 0.391073 0.511269
537408616 18.334 0.398561 0.525647
537544132 18.3429 0.406134 0.558277
537679648 18.3518 0.413772 0.539711
537815164 18.3607 0.421564 0.549644
537950679 18.3696 0.429518 0.558645
538086195 18.3785 0.437645 0.561926
538200938 18.3874 0.459388 0.891296
538315682 18.3963 0.467927 0.689
538430425 18.4053 0.476598 0.724491
538545168 18.4142 0.485406 0.768104
538659912 18.4231 0.49436 0.740471
538774655 18.432 0.50346 0.756545
538889399 18.4409 0.512702 0.76764
539004142 18.4498 0.522085 0.770598
539104142 18.4587 0.544238 1.12753
539204142 18.4677 0.553777 0.904916
539304142 18.4766 0.563424 0.941943
539404142 18.4855 0.573177 0.987404
539504142 18.4944 0.583029 0.954869
539604142 18.5033 0.592975 0.969706
539704142 18.5122 0.603009 0.978848
539804142 18.5211 0.613125 0.978744
539904142 18.5301 0.621735 0.947095
540004142 18.539 0.63023 0.938541
540104142 18.5479 0.638581 0.924864
540204142 18.5568 0.646757 0.907014
540304142 18.5657 0.654723 0.891754
540404142 18.5746 0.662441 0.873868
540504142 18.5835 0.66987 0.853884
540604142 18.5924 0.676963 0.832203
540704142 18.6014 0.683867 0.812577
540804142 18.6103 0.690571 0.792278
540904142 18.6192 0.69707 0.771734
541004142 18.6281 0.703359 0.751375
541104142 18.637 0.709438 0.730835
541204142 18.6459 0.715313 0.710354
541304142 18.6548 0.720994 0.690151
541404142 18.6638 0.726497 0.67043
541504142 18.6727 0.731826 0.650955
541604142 18.6816 0.736983 0.63181
541704142 18.6905 0.741972 0.613027
541804142 18.6994 0.746799 0.594615
541904142 18.7083 0.751469 0.576614
542004142 18.7172 0.755989 0.559052
542104142 18.7262 0.760363 0.541929
542204142 18.7351 0.764596 0.525228
542304142 18.744 0.768692 0.508958
542404142 18.7529 0.772656 0.49312
542504142 18.7618 0.776491 0.477711
542604142 18.7707 0.780203 0.462739
542704142 18.7796 0.783795 0.448185
542804142 18.7885 0.787271 0.434054
542904142 18.7975 0.790634 0.42033
543004142 18.8064 0.793889 0.407012
543104142 18.8153 0.797038 0.394089
543204142 18.8242 0.800086 0.381551
543304142 18.8331 0.803035 0.369397
543404142 18.842 0.80589 0.35761
543504142 18.8509 0.808651 0.346184
543604142 18.8599 0.811324 0.335112
543704142 18.8688 0.81391 0.324384
543804142 18.8777 0.816413 0.313986
543904142 18.8866 0.818835 0.303918
544004142 18.8955 0.821178 0.294159
544104142 18.9044 0.823446 0.284713
544204142 18.9133 0.825641 0.275561
544304142 18.9223 0.827764 0.2667
544404142 18.9312 0.829819 0.25812
544504142 18.9401 0.831808 0.249811
544604142 18.949 0.833732 0.241768
544704142 18.9579 0.835595 0.233979
544804142 18.9668 0.837397 0.226441
544904142 18.9757 0.83914 0.219145
545004142 18.9846 0.840828 0.212078
545104142 18.9936 0.842461 0.205239
545204142 19.0025 0.844041 0.198622
545304142 19.0114 0.84557 0.192211
545404142 19.0203 0.84705 0.186011
545504142 19.0292 0.848482 0.18001
545604142 19.0381 0.849868 0.1742
545704142 19.047 0.851208 0.168577
545804142 19.056 0.852506 0.163135
545904142 19.0649 0.853762 0.15787
546004142 19.0738 0.854977 0.152771
546104142 19.0827 0.856153 0.14784
546204142 19.0916 0.85729 0.143064
546304142 19.1005 0.858391 0.138446
546404142 19.1094 0.859457 0.133974
546504142 19.1184 0.860488 0.129649
546604142 19.1273 0.861486 0.125459
546704142 19.1362 0.862451 0.121409
546804142 19.1451 0.863385 0.117489
546904142 19.154 0.86429 0.11369
547004142 19.1629 0.865164 0.110019
547104142 19.1718 0.866011 0.106465
547204142 19.1807 0.86683 0.103028
547304142 19.1897 0.867623 0.0996991
547404142 19.1986 0.86839 0.0964773
547504142 19.2075 0.869133 0.0933609
547604142 19.2164 0.869851 0.0903431
547704142 19.2253 0.870546 0.0874255
547804142 19.2342 0.871219 0.0846024
547904142 19.2431 0.87187 0.0818656
548004142 19.2521 0.8725 0.0792251
548104142 19.261 0.87311 0.0766631
548204142 19.2699 0.8737 0.0741868
548304142 19.2788 0.874271 0.0717904
548404142 19.2877 0.874823 0.06947
548504142 19.2966 0.875358 0.0672266
548604142 19.3055 0.875875 0.0650544
548704142 19.3145 0.876375 0.0629531
548804142 19.3234 0.87686 0.0609177
548904142 19.3323 0.877329 0.0589509
549004142 19.3412 0.877782 0.0570449
549104142 19.3501 0.878221 0.0552025
549204142 19.359 0.878646 0.0534194
549304142 19.3679 0.879057 0.0516916
549404142 19.3769 0.879455 0.0500213
549504142 19.3858 0.87984 0.048407
549604142 19.3947 0.880212 0.0468441
549704142 19.4036 0.880573 0.0453262
549804142 19.4125 0.880921 0.043865
549904142 19.4214 0.881259 0.0424476
550004142 19.4303 0.881586 0.0410758
550104142 19.4392 0.881902 0.0397498
550204142 19.4482 0.882207 0.0384633
550304142 19.4571 0.882503 0.0372224
550404142 19.466 0.88279 0.0360198
550504142 19.4749 0.883067 0.0348554
550604142 19.4838 0.883335 0.033729
550704142 19.4927 0.883595 0.0326387
550804142 19.5016 0.883846 0.0315857
550904142 19.5106 0.884089 0.0305643
551004142 19.5195 0.884324 0.0295765
551104142 19.5284 0.884552 0.0286199
551204142 19.5373 0.884772 0.0276967
551304142 19.5462 0.884985 0.0268017
551404142 19.5551 0.885191 0.0259356
551504142 19.564 0.885391 0.0250957
551604142 19.573 0.885584 0.0242878
551704142 19.5819 0.885771 0.0235017
551804142 19.5908 0.885952 0.022743
551904142 19.5997 0.886127 0.0220083
552004142 19.6086 0.886296 0.0212956
552104142 19.6175 0.88646 0.0206087
552204142 19.6264 0.886618 0.0199416
552304142 19.6353 0.886772 0.0192988
552404142 19.6443 0.88692 0.0186753
552504142 19.6532 0.887064 0.0180733
552604142 19.6621 0.887203 0.0174856
552704142 19.671 0.887338 0.0169229
552804142 19.6799 0.887468 0.0163773
552904142 19.6888 0.887594 0.0158457
553004142 19.6977 0.887716 0.0153356
553104142 19.7067 0.887834 0.0148386
553204142 19.7156 0.887948 0.0143611
553304142 19.7245 0.888059 0.0138954
553404142 19.7334 0.888166 0.0134464
553504142 19.7423 0.888269 0.0130111
553604142 19.7512 0.888369 0.012592
553704142 19.7601 0.888466 0.0121846
553804142 19.7691 0.88856 0.0117912
553904142 19.778 0.888651 0.0114121
554004142 19.7869 0.888738 0.0110411
554104142 19.7958 0.888823 0.0106847
554204142 19.8047 0.888906 0.0103413
554304142 19.8136 0.888985 0.010005
554404142 19.8225 0.889062 0.00968103
554504142 19.8314 0.889136 0.00936891
554604142 19.8404 0.889209 0.00906647
554704142 19.8493 0.889278 0.0087725
554804142 19.8582 0.889346 0.00849157
554904142 19.8671 0.889411 0.0082166
555004142 19.876 0.889474 0.00794849
555104142 19.8849 0.889536 0.00769242
555204142 19.8938 0.889595 0.0074444
555304142 19.9028 0.889652 0.00720499
555404142 19.9117 0.889708 0.00697275
555504142 19.9206 0.889761 0.00674646
555604142 19.9295 0.889813 0.00652932
555704142 19.9384 0.889863 0.00631589
555804142 19.9473 0.889912 0.00611273
555904142 19.9562 0.889959 0.0059172
556004142 19.9652 0.890005 0.00572337
556104142 19.9741 0.890049 0.00553814
556204142 19.983 0.890091 0.00536111
556304142 19.9919 0.890132 0.00518685
556404142 20.0008 0.890172 0.00501934
556504142 20.0097 0.890211 0.00485811
556604142 20.0186 0.890248 0.00469898
556704142 20.0275 0.890284 0.00454733
556804142 20.0365 0.890319 0.00440151
556904142 20.0454 0.890353 0.00425954
557004142 20.0543 0.890386 0.00412372
557104142 20.0632 0.890418 0.00398814
557204142 20.0721 0.890449 0.00385883
557304142 20.081 0.890478 0.00373639
557404142 20.0899 0.890507 0.0036136
557504142 20.0989 0.890535 0.00349771
557604142 20.1078 0.890562 0.00338517
557704142 20.1167 0.890588 0.00327511
557804142 20.1256 0.890613 0.00316823
557904142 20.1345 0.890637 0.00306917
558004142 20.1434 0.890661 0.00296606
558104142 20.1523 0.890684 0.00287396
558204142 20.1613 0.890706 0.00277999
558304142 20.1702 0.890727 0.00268915
558404142 20.1791 0.890748 0.00260323
558504142 20.188 0.890768 0.00251885
558604142 20.1969 0.890787 0.00243688
558704142 20.2058 0.890806 0.00235897
558804142 20.2147 0.890824 0.00228307
558904142 20.2236 0.890842 0.00220743
559004142 20.2326 0.890859 0.00213709
559104142 20.2415 0.890875 0.00206863
559204142 20.2504 0.890891 0.00200019
559304142 20.2593 0.890907 0.00193725
559404142 20.2682 0.890922 0.00187431
559504142 20.2771 0.890936 0.00181274
559604142 20.286 0.89095 0.00175475
559704142 20.295 0.890963 0.001698
559804142 20.3039 0.890976 0.00164465
559904142 20.3128 0.890989 0.00158779
560004142 20.3217 0.891001 0.00153863
560118885 20.3306 0.876697 -0.310466
560233629 20.3395 0.874918 -0.115594
560348372 20.3484 0.872917 -0.149737
560463115 20.3574 0.870663 -0.193061
560577859 20.3663 0.868124 -0.169905
560692602 20.3752 0.865268 -0.190394
560807346 20.3841 0.862053 -0.208407
560922089 20.393 0.858435 -0.220999
561036832 20.4019 0.856152 -0.204689
561172348 20.4108 0.838921 -0.476398
561307864 20.4198 0.834672 -0.303915
561443379 20.4287 0.830174 -0.329235
561578895 20.4376 0.825429 -0.364911
561714411 20.4465 0.820449 -0.341385
561849926 20.4554 0.815249 -0.35481
561985442 20.4643 0.809851 -0.364872
562120958 20.4732 0.804063 -0.372038
562278684 20.4821 0.788128 -0.525505
562436411 20.4911 0.782309 -0.407827
562594137 20.5 0.776327 -0.421167
562751864 20.5089 0.770189 -0.435918
562909590 20.5178 0.763907 -0.4158
563067317 20.5267 0.757488 -0.419953
563248605 20.5356 0.741762 -0.534785
563429893 20.5445 0.733975 -0.450026
563611181 20.5535 0.727205 -0.44454
563792469 20.5624 0.720317 -0.452325
563973757 20.5713 0.713316 -0.43327
564155045 20.5802 0.706207 -0.43057
564361152 20.5891 0.691594 -0.506296
564567259 20.598 0.683357 -0.442444
564773367 20.6069 0.676056 -0.433384
564979474 20.6159 0.668816 -0.433345
565185581 20.6248 0.661518 -0.415823
565417668 20.6337 0.648116 -0.464996
565649755 20.6426 0.639966 -0.416331
565881841 20.6515 0.631686 -0.413478
566113928 20.6604 0.624198 -0.404367
566373051 20.6693 0.611794 -0.428216
566632174 20.6782 0.603761 -0.389015
566891297 20.6872 0.595629 -0.383855
567150420 20.6961 0.587393 -0.379733
567437531 20.705 0.575611 -0.390742
567724641 20.7139 0.567567 -0.358627
568011752 20.7228 0.559552 -0.352066
568327689 20.7317 0.54793 -0.36732
568643627 20.7406 0.539947 -0.332673
568959565 20.7496 0.53197 -0.326134
569275502 20.7585 0.524013 -0.319497
569620994 20.7674 0.513074 -0.323734
569966485 20.7763 0.505257 -0.298907
570311977 20.7852 0.497468 -0.291895
570687632 20.7941 0.487118 -0.297513
571063287 20.803 0.479516 -0.272667
571469596 20.812 0.469725 -0.275766
571875906 20.8209 0.461944 -0.259361
572282215 20.8298 0.454185 -0.249687
572719548 20.8387 0.444879 -0.249403
573156882 20.8476 0.437332 -0.232757
573625487 20.8565 0.428115 -0.232135
574094091 20.8654 0.420739 -0.217921
574594091 20.8743 0.411899 -0.214904
575094091 20.8833 0.404671 -0.202381
575625487 20.8922 0.396195 -0.198677
576156882 20.9011 0.388946 -0.188093
576719548 20.91 0.380789 -0.18353
577282215 20.9189 0.373722 -0.173978
577875906 20.9278 0.365888 -0.169388
578469596 20.9367 0.359031 -0.160596
579093941 20.9457 0.351501 -0.156142
579748450 20.9546 0.344033 -0.150059
580402958 20.9635 0.337512 -0.141605
581087021 20.9724 0.330348 -0.138136
581799910 20.9813 0.323384 -0.131871
582512800 20.9902 0.317092 -0.124969
583253677 20.9991 0.310402 -0.121318
584021590 21.0081 0.303793 -0.116053
584815483 21.017 0.297355 -0.11086
585609375 21.0259 0.29152 -0.105431
586428087 21.0348 0.285346 -0.10194
587270361 21.0437 0.27934 -0.0973842
588134845 21.0526 0.273495 -0.093093
589020102 21.0615 0.267743 -0.0893484
589924610 21.0704 0.262143 -0.085435
590829119 21.0794 0.256936 -0.0813592
591751283 21.0883 0.251648 -0.0783721
592689436 21.0972 0.246458 -0.075122
593641850 21.1061 0.241419 -0.0719398
594606738 21.115 0.236528 -0.0690319
595582266 21.1239 0.231781 -0.0661882
596566558 21.1328 0.227184 -0.0634657
597557701 21.1418 0.222736 -0.060891
598553759 21.1507 0.218405 -0.0585053
599552772 21.1596 0.214217 -0.0561968
600552772 21.1685 0.210176 -0.0540012
601551785 21.1774 0.206281 -0.0519214
602547843 21.1863 0.202534 -0.0499362
603538986 21.1952 0.198933 -0.0480462
604523278 21.2042 0.19548 -0.0462464
605498806 21.2131 0.192175 -0.0445276
606463695 21.222 0.189022 -0.042874
607416108 21.2309 0.186024 -0.0412818
608354261 21.2398 0.183183 -0.039742
609276425 21.2487 0.180501 -0.0382438
610180934 21.2576 0.177983 -0.036777
611066190 21.2665 0.175632 -0.0353295
611930675 21.2755 0.173454 -0.0338878
612795159 21.2844 0.171114 -0.033266
613637433 21.2933 0.169215 -0.0312564
614456145 21.3022 0.167495 -0.029856
615250037 21.3111 0.165959 -0.0284301
616017951 21.32 0.164616 -0.0267579
616758828 21.3289 0.163475 -0.0251125
617499704 21.3379 0.161955 -0.0252031
618212594 21.3468 0.161108 -0.0222386
618896656 21.3557 0.160516 -0.0203023
619580719 21.3646 0.159428 -0.0209101
620235227 21.3735 0.159156 -0.0169046
620859572 21.3824 0.159128 -0.0146412
621483917 21.3913 0.158442 -0.015861
622077608 21.4003 0.158734 -0.0106208
622640274 21.4092 0.159366 -0.0074717
623202941 21.4181 0.159149 -0.0094558
623734336 21.427 0.160143 -0.00220872
624265731 21.4359 0.160232 -0.00436392
624765731 21.4448 0.161683 0.00324855
625265731 21.4537 0.162003 0.00076622
625734336 21.4627 0.163941 0.0102525
626202941 21.4716 0.164592 0.00703915
626640274 21.4805 0.166945 0.0179676
627077608 21.4894 0.16792 0.0143857
627483917 21.4983 0.170837 0.0277993
627890226 21.5072 0.172163 0.0231948
628296536 21.5161 0.173473 0.0244044
628672191 21.525 0.177144 0.0432838
629047846 21.534 0.178795 0.0337043
629393337 21.5429 0.18316 0.0569331
629738829 21.5518 0.185186 0.0481457
630084320 21.5607 0.187345 0.0503144
630400258 21.5696 0.192425 0.0790471
630716196 21.5785 0.194958 0.0644182
631032133 21.5874 0.197643 0.069697
631319244 21.5964 0.203747 0.106434
631606354 21.6053 0.206866 0.0872969
631893464 21.6142 0.209829 0.0916592
632180575 21.6231 0.212909 0.0981681
632439698 21.632 0.220296 0.140552
632698821 21.6409 0.22378 0.116208
632957944 21.6498 0.227383 0.123492
633217067 21.6588 0.2311 0.130928
633449154 21.6677 0.239529 0.183445
633681241 21.6766 0.243612 0.153446
633913327 21.6855 0.247835 0.162445
634145414 21.6944 0.2522 0.171858
634351521 21.7033 0.26224 0.243712
634557629 21.7122 0.267047 0.202813
634763736 21.7211 0.272005 0.214737
634969843 21.7301 0.277118 0.227335
635175951 21.739 0.281817 0.218211
635357239 21.7479 0.293993 0.332992
635538527 21.7568 0.299763 0.274202
635719815 21.7657 0.305709 0.288339
635901103 21.7746 0.311142 0.298814
636082391 21.7835 0.316654 0.291349
636240117 21.7925 0.331417 0.453616
636397844 21.8014 0.338203 0.368518
636555570 21.8103 0.345252 0.390097
636713297 21.8192 0.351659 0.404608
636871023 21.8281 0.358147 0.393634
637028749 21.837 0.364701 0.400979
637164265 21.8459 0.382974 0.636899
637299781 21.8549 0.391264 0.510812
637435297 21.8638 0.398745 0.52518
637570812 21.8727 0.406313 0.557843
637706328 21.8816 0.413945 0.539254
637841844 21.8905 0.421731 0.549201
637977359 21.8994 0.42968 0.558212
638112875 21.9083 0.437801 0.561496
638227618 21.9172 0.45954 0.890859
638342362 21.9262 0.468073 0.688569
638457105 21.9351 0.47674 0.724064
638571848 21.944 0.485544 0.76768
638686592 21.9529 0.494493 0.740054
638801335 21.9618 0.503589 0.756133
638916079 21.9707 0.512827 0.767237
639030822 21.9796 0.522205 0.770203
639130822 21.9886 0.544355 1.12713
639230822 21.9975 0.55389 0.904522
639330822 22.0064 0.563534 0.941555
639430822 22.0153 0.573282 0.987021
639530822 22.0242 0.583131 0.954492
639630822 22.0331 0.593074 0.969338
639730822 22.042 0.603105 0.978485
639830822 22.051 0.613217 0.978391
639930822 22.0599 0.621825 0.946749
640030822 22.0688 0.630317 0.938205
640130822 22.0777 0.638665 0.924533
640230822 22.0866 0.646838 0.906692
640330822 22.0955 0.654801 0.89144
640430822 22.1044 0.662517 0.873565
640530822 22.1133 0.669943 0.853586
640630822 22.1223 0.677034 0.831917
640730822 22.1312 0.683935 0.812294
640830822 22.1401 0.690638 0.79201
640930822 22.149 0.697134 0.771469
641030822 22.1579 0.703421 0.751121
641130822 22.1668 0.709499 0.730588
641230822 22.1757 0.715372 0.710112
641330822 22.1847 0.72105 0.689918
641430822 22.1936 0.726552 0.670204
641530822 22.2025 0.731879 0.650737
641630822 22.2114 0.737035 0.631596
641730822 22.2203 0.742022 0.612822
641830822 22.2292 0.746847 0.594413
641930822 22.2381 0.751516 0.57642
642030822 22.2471 0.756034 0.558865
642130822 22.256 0.760406 0.541748
642230822 22.2649 0.764638 0.525053
642330822 22.2738 0.768733 0.508791
642430822 22.2827 0.772695 0.492954
642530822 22.2916 0.77653 0.477552
642630822 22.3005 0.78024 0.462584
642730822 22.3095 0.783831 0.448037
642830822 22.3184 0.787305 0.433907
642930822 22.3273 0.790667 0.420191
643030822 22.3362 0.793921 0.406876
643130822 22.3451 0.79707 0.393956
643230822 22.354 0.800116 0.381425
643330822 22.3629 0.803065 0.369273
643430822 22.3718 0.805918 0.357492
643530822 22.3808 0.808679 0.346069
643630822 22.3897 0.81135 0.335001
643730822 22.3986 0.813936 0.324276
643830822 22.4075 0.816438 0.313881
643930822 22.4164 0.818859 0.303815
644030822 22.4253 0.821202 0.294064
644130822 22.4342 0.823469 0.284617
644230822 22.4432 0.825662 0.27547
644330822 22.4521 0.827785 0.266611
644430822 22.461 0.82984 0.258034
644530822 22.4699 0.831828 0.249727
644630822 22.4788 0.833751 0.241688
644730822 22.4877 0.835613 0.233903
644830822 22.4966 0.837415 0.226365
644930822 22.5056 0.839158 0.21907
645030822 22.5145 0.840845 0.212008
645130822 22.5234 0.842477 0.205171
645230822 22.5323 0.844057 0.198554
645330822 22.5412 0.845586 0.192151
645430822 22.5501 0.847065 0.185949
645530822 22.559 0.848496 0.179949
645630822 22.5679 0.849881 0.174141
645730822 22.5769 0.851222 0.168522
645830822 22.5858 0.852519 0.163082
645930822 22.5947 0.853774 0.157815
646030822 22.6036 0.854989 0.152721
646130822 22.6125 0.856164 0.14779
646230822 22.6214 0.857302 0.143017
646330822 22.6303 0.858402 0.1384
646430822 22.6393 0.859467 0.133931
646530822 22.6482 0.860498 0.129604
646630822 22.6571 0.861496 0.125418
646730822 22.666 0.862461 0.121368
646830822 22.6749 0.863395 0.117448
646930822 22.6838 0.864299 0.113656
647030822 22.6927 0.865173 0.109981
647130822 22.7017 0.86602 0.106431
647230822 22.7106 0.866839 0.102992
647330822 22.7195 0.867631 0.0996644
647430822 22.7284 0.868398 0.0964455
647530822 22.7373 0.86914 0.0933297
647630822 22.7462 0.869858 0.0903132
647730822 22.7551 0.870553 0.0873985
647830822 22.764 0.871226 0.084573
647930822 22.773 0.871877 0.0818403
648030822 22.7819 0.872506 0.0791991
648130822 22.7908 0.873116 0.0766374
648230822 22.7997 0.873706 0.074162
648330822 22.8086 0.874276 0.0717658
648430822 22.8175 0.874828 0.0694475
648530822 22.8264 0.875363 0.067203
648630822 22.8354 0.87588 0.065033
648730822 22.8443 0.87638 0.0629306
648830822 22.8532 0.876865 0.0608989
648930822 22.8621 0.877333 0.0589316
649030822 22.871 0.877787 0.057026
649130822 22.8799 0.878226 0.0551845
649230822 22.8888 0.87865 0.0533998
649330822 22.8978 0.879061 0.0516756
649430822 22.9067 0.879459 0.050006
649530822 22.9156 0.879844 0.0483924
649630822 22.9245 0.880216 0.0468253
649730822 22.9334 0.880576 0.0453141
649830822 22.9423 0.880925 0.043848
649930822 22.9512 0.881262 0.0424337
650030822 22.9601 0.881589 0.0410614
650130822 22.9691 0.881905 0.0397348
650230822 22.978 0.88221 0.0384524
650330822 22.9869 0.882506 0.0372086
650430822 22.9958 0.882793 0.0360043
650530822 23.0047 0.88307 0.0348435
650630822 23.0136 0.883338 0.0337187
650730822 23.0225 0.883597 0.0326274
650830822 23.0315 0.883848 0.0315755
650930822 23.0404 0.884091 0.0305526
651030822 23.0493 0.884326 0.0295682
651130822 23.0582 0.884554 0.0286123
651230822 23.0671 0.884774 0.0276842
651330822 23.076 0.884987 0.0267928
651430822 23.0849 0.885193 0.0259283
651530822 23.0939 0.885393 0.0250886
651630822 23.1028 0.885586 0.0242764
651730822 23.1117 0.885773 0.0234934
651830822 23.1206 0.885953 0.0227363
651930822 23.1295 0.886128 0.0219998
652030822 23.1384 0.886298 0.0212897
652130822 23.1473 0.886461 0.0206016
652230822 23.1562 0.88662 0.0199362
652330822 23.1652 0.886774 0.0192923
652430822 23.1741 0.886922 0.0186669
652530822 23.183 0.887066 0.0180664
652630822 23.1919 0.887205 0.017482
652730822 23.2008 0.887339 0.0169182
652830822 23.2097 0.887469 0.0163697
652930822 23.2186 0.887595 0.0158417
653030822 23.2276 0.887717 0.0153296
653130822 23.2365 0.887835 0.0148324
653230822 23.2454 0.887949 0.0143553
653330822 23.2543 0.88806 0.0138909
653430822 23.2632 0.888166 0.0134404
653530822 23.2721 0.88827 0.0130108
653630822 23.281 0.88837 0.0125856
653730822 23.29 0.888467 0.0121795
653830822 23.2989 0.888561 0.0117883
653930822 23.3078 0.888651 0.0114048
654030822 23.3167 0.888739 0.0110391
654130822 23.3256 0.888824 0.0106816
654230822 23.3345 0.888906 0.0103345
654330822 23.3434 0.888986 0.0100002
654430822 23.3524 0.889063 0.00967922
654530822 23.3613 0.889137 0.00936555
654630822 23.3702 0.889209 0.00906212
654730822 23.3791 0.889279 0.00877011
654830822 23.388 0.889346 0.0084872
654930822 23.3969 0.889412 0.00821197
655030822 23.4058 0.889475 0.00794565
655130822 23.4147 0.889536 0.00769316
655230822 23.4237 0.889595 0.00744272
655330822 23.4326 0.889653 0.00720219
655430822 23.4415 0.889708 0.0069681
655530822 23.4504 0.889762 0.00674418
655630822 23.4593 0.889813 0.00652689
655730822 23.4682 0.889864 0.00631541
655830822 23.4771 0.889912 0.00611328
655930822 23.4861 0.889959 0.00591476
656030822 23.495 0.890005 0.00572092
656130822 23.5039 0.890049 0.00553891
656230822 23.5128 0.890091 0.00535823
656330822 23.5217 0.890133 0.00518571
656430822 23.5306 0.890173 0.00501853
656530822 23.5395 0.890211 0.0048569
656630822 23.5485 0.890249 0.00470004
656730822 23.5574 0.890285 0.00454709
656830822 23.5663 0.89032 0.00440141
656930822 23.5752 0.890354 0.00425787
657030822 23.5841 0.890386 0.0041195
657130822 23.593 0.890418 0.00399035
657230822 23.6019 0.890449 0.00385791
657330822 23.6108 0.890478 0.00373381
657430822 23.6198 0.890507 0.00361328
657530822 23.6287 0.890535 0.0034986
657630822 23.6376 0.890562 0.00338281
657730822 23.6465 0.890588 0.00327466
657830822 23.6554 0.890613 0.00316775
657930822 23.6643 0.890638 0.00306649
658030822 23.6732 0.890661 0.00296701
658130822 23.6822 0.890684 0.00287155
658230822 23.6911 0.890706 0.00277896
658330822 23.7 0.890727 0.00268667
658430822 23.7089 0.890748 0.00260175
658530822 23.7178 0.890768 0.00251946
658630822 23.7267 0.890788 0.00243789
658730822 23.7356 0.890806 0.0023553
658830822 23.7446 0.890824 0.0022807
658930822 23.7535 0.890842 0.00220803
659030822 23.7624 0.890859 0.00213573
659130822 23.7713 0.890875 0.00206785
659230822 23.7802 0.890891 0.00200166
659330822 23.7891 0.890907 0.00193708
659430822 23.798 0.890922 0.00187258
659530822 23.8069 0.890936 0.00181264
659630822 23.8159 0.89095 0.00175425
659730822 23.8248 0.890963 0.00169742
659830822 23.8337 0.890977 0.00164435
659930822 23.8426 0.890989 0.00159116
660030822 23.8515 0.891001 0.0015374
660145565 23.8604 0.876697 -0.310466
660260309 23.8693 0.874918 -0.115593
660375052 23.8783 0.872917 -0.149737
660489796 23.8872 0.870662 -0.193081
660604539 23.8961 0.868125 -0.169874
660719282 23.905 0.865269 -0.190408
660834026 23.9139 0.862053 -0.20841
660948769 23.9228 0.858435 -0.220995
661063512 23.9317 0.856152 -0.204691
661199028 23.9407 0.838921 -0.476398
661334544 23.9496 0.834672 -0.303914
661470059 23.9585 0.830174 -0.329234
661605575 23.9674 0.825429 -0.364912
661741091 23.9763 0.820449 -0.341386
661876607 23.9852 0.815249 -0.354821
662012122 23.9941 0.809851 -0.364856
662169849 24.003 0.792485 -0.540526
662327575 24.012 0.786681 -0.407047
662485302 24.0209 0.780681 -0.423198
662643028 24.0298 0.774495 -0.440744
662800754 24.0387 0.768128 -0.418661
662958481 24.0476 0.761588 -0.424319
663116207 24.0565 0.754881 -0.427241
663297495 24.0654 0.738828 -0.538925
663478783 24.0744 0.732121 -0.440115
663660071 24.0833 0.725301 -0.445617
663841359 24.0922 0.718379 -0.451627
664022647 24.1011 0.711364 -0.431072
664228755 24.11 0.696867 -0.507919
664434862 24.1189 0.688777 -0.445782
664640969 24.1278 0.680515 -0.446419
664847077 24.1368 0.673225 -0.438449
665053184 24.1457 0.665863 -0.421957
665285271 24.1546 0.652382 -0.471924
665517357 24.1635 0.644133 -0.421944
665749444 24.1724 0.635729 -0.419483
665981531 24.1813 0.628086 -0.41066
666213617 24.1902 0.6205 -0.394739
666472740 24.1992 0.607989 -0.426926
666731864 24.2081 0.599834 -0.386757
666990987 24.217 0.591581 -0.381734
667250110 24.2259 0.583981 -0.37218
667537220 24.2348 0.57227 -0.387136
667824331 24.2437 0.564338 -0.354334
668111441 24.2526 0.556369 -0.347797
668427379 24.2615 0.544812 -0.36377
668743316 24.2705 0.536915 -0.328964
669059254 24.2794 0.52905 -0.322368
669404746 24.2883 0.518217 -0.332165
669750237 24.2972 0.509996 -0.305358
670095729 24.3061 0.502212 -0.2963
670471384 24.315 0.491857 -0.30237
670847039 24.3239 0.483793 -0.279674
671222694 24.3329 0.476165 -0.270347
671629003 24.3418 0.466334 -0.27359
672035313 24.3507 0.458494 -0.254139
672472646 24.3596 0.449084 -0.253314
672909979 24.3685 0.44147 -0.238786
673347313 24.3774 0.433877 -0.229964
673815917 24.3863 0.424929 -0.228251
674284522 24.3953 0.417571 -0.213505
674784522 24.4042 0.408754 -0.212016
675284522 24.4131 0.401557 -0.199431
675815917 24.422 0.393123 -0.195916
676347313 24.4309 0.386128 -0.18475
676909979 24.4398 0.378045 -0.180938
677472646 24.4487 0.371066 -0.17141
678066337 24.4576 0.363298 -0.166984
678690681 24.4666 0.355592 -0.160688
679315026 24.4755 0.348947 -0.151379
679969535 24.4844 0.341548 -0.148023
680624043 24.4933 0.335102 -0.139647
681308106 24.5022 0.327988 -0.135761
682020995 24.5111 0.321072 -0.13011
682761872 24.52 0.314232 -0.124459
683502749 24.529 0.308099 -0.118278
684270662 24.5379 0.301633 -0.114263
685064555 24.5468 0.295244 -0.109369
685883267 24.5557 0.289031 -0.104451
686701979 24.5646 0.283272 -0.099606
687544253 24.5735 0.277302 -0.0960771
688408737 24.5824 0.27149 -0.0918388
689293994 24.5914 0.265845 -0.0878227
690198502 24.6003 0.260296 -0.0842736
691120666 24.6092 0.254892 -0.0806316
692058819 24.6181 0.249643 -0.077172
693011233 24.627 0.244541 -0.0739098
693976121 24.6359 0.239549 -0.070864
694941009 24.6448 0.23483 -0.0677134
695916538 24.6537 0.230121 -0.0651885
696900829 24.6627 0.225554 -0.0625418
697891973 24.6716 0.221133 -0.0600121
698888030 24.6805 0.216857 -0.0576664
699887044 24.6894 0.212726 -0.0553933
700887044 24.6983 0.208738 -0.0532377
701886057 24.7072 0.204898 -0.0511846
702882114 24.7161 0.20119 -0.0492615
703873258 24.7251 0.197629 -0.0474029
704857549 24.734 0.194216 -0.0456293
705833078 24.7429 0.190953 -0.0439353
706797966 24.7518 0.187841 -0.0423051
707750379 24.7607 0.184882 -0.0407355
708688533 24.7696 0.182078 -0.0392166
709610697 24.7785 0.179431 -0.0377393
710515205 24.7875 0.176947 -0.0362883
711400462 24.7964 0.17463 -0.0348552
712264946 24.8053 0.172484 -0.0334263
713107220 24.8142 0.170515 -0.0319862
713925932 24.8231 0.16873 -0.0305176
714744644 24.832 0.166711 -0.0301476
715538536 24.8409 0.165216 -0.0278718
716306450 24.8498 0.163914 -0.0263734
717047327 24.8588 0.162814 -0.0248089
717760216 24.8677 0.161928 -0.0228725
718473106 24.8766 0.160608 -0.0231413
719157168 24.8855 0.160028 -0.0198245
719811677 24.8944 0.159676 -0.0178052
720466185 24.9033 0.158797 -0.0185517
721090530 24.9122 0.158817 -0.0139651
721684221 24.9212 0.159101 -0.0113834
722277911 24.9301 0.158637 -0.0129294
722840578 24.939 0.15926 -0.00679968
723403245 24.9479 0.159092 -0.0085267
723934640 24.9568 0.16014 -0.00213231
724466035 24.9657 0.160198 -0.00409182
724966035 24.9746 0.16169 0.00377104
725466035 24.9836 0.162049 0.00118242
725934640 24.9925 0.16391 0.0101463
726403245 25.0014 0.164569 0.00729169
726840578 25.0103 0.166933 0.0181681
727277911 25.0192 0.167914 0.0145049
727684221 25.0281 0.170831 0.0279392
728090530 25.037 0.17216 0.0233311
728466185 25.0459 0.175706 0.0400458
728841840 25.0549 0.177413 0.0341903
729217495 25.0638 0.179101 0.0356247
729562987 25.0727 0.183507 0.059347
729908478 25.0816 0.185579 0.0472823
730253970 25.0905 0.187787 0.0515413
730569908 25.0994 0.192923 0.0801863
730885845 25.1083 0.195519 0.0652912
731201783 25.1173 0.197995 0.068851
731488893 25.1262 0.204109 0.106818
731776004 25.1351 0.207235 0.0874586
732063114 25.144 0.210201 0.0916094
732322237 25.1529 0.217471 0.141605
732581360 25.1618 0.221181 0.115966
732840484 25.1707 0.224713 0.121372
733099607 25.1797 0.228363 0.129945
733331693 25.1886 0.237168 0.186668
733563780 25.1975 0.2413 0.154007
733795866 25.2064 0.245558 0.163524
734027953 25.2153 0.249977 0.173655
734234060 25.2242 0.260092 0.245486
734440168 25.2331 0.264956 0.20466
734646275 25.2421 0.269986 0.216969
734852383 25.251 0.275189 0.229886
735058490 25.2599 0.279942 0.22053
735239778 25.2688 0.292173 0.335518
735421066 25.2777 0.298 0.276838
735602354 25.2866 0.304003 0.291002
735783642 25.2955 0.309492 0.301533
735964930 25.3044 0.315059 0.294114
736146218 25.3134 0.320693 0.299357
736303944 25.3223 0.335563 0.459435
736461671 25.3312 0.342515 0.373419
736619397 25.3401 0.348808 0.3828
736777124 25.349 0.355158 0.40457
736934850 25.3579 0.361553 0.391557
737092577 25.3668 0.36806 0.397871
737228092 25.3758 0.386264 0.634328
737363608 25.3847 0.39446 0.507134
737499124 25.3936 0.401822 0.52065
737634639 25.4025 0.409236 0.552303
737770155 25.4114 0.416789 0.534359
737905671 25.4203 0.424493 0.543948
738041186 25.4292 0.432361 0.552804
738155930 25.4382 0.455282 0.907176
738270673 25.4471 0.46391 0.688969
738385417 25.456 0.472591 0.726364
738500160 25.4649 0.481438 0.773382
738614903 25.4738 0.490463 0.743818
738729647 25.4827 0.499671 0.76152
738844390 25.4916 0.509069 0.774445
738959133 25.5005 0.518658 0.778858
739073877 25.5095 0.526579 0.751288
739173877 25.5184 0.548729 1.12991
739273877 25.5273 0.558247 0.902948
739373877 25.5362 0.567848 0.936067
739473877 25.5451 0.577521 0.984062
739573877 25.554 0.587252 0.949051
739673877 25.5629 0.597025 0.961616
739773877 25.5719 0.606821 0.968581
739873877 25.5808 0.616852 0.970569
739973877 25.5897 0.625367 0.938073
740073877 25.5986 0.633757 0.929058
740173877 25.6075 0.641995 0.915388
740273877 25.6164 0.650055 0.897112
740373877 25.6253 0.657905 0.881647
740473877 25.6343 0.665515 0.863785
740573877 25.6432 0.672852 0.844054
740673877 25.6521 0.679852 0.822371
740773877 25.661 0.686662 0.802817
740873877 25.6699 0.693275 0.782641
740973877 25.6788 0.699685 0.762206
741073877 25.6877 0.705889 0.742013
741173877 25.6966 0.711887 0.721665
741273877 25.7056 0.717684 0.701384
741373877 25.7145 0.723288 0.681366
741473877 25.7234 0.728717 0.661844
741573877 25.7323 0.733974 0.64257
741673877 25.7412 0.739062 0.623629
741773877 25.7501 0.743984 0.605061
741873877 25.759 0.748745 0.586861
741973877 25.768 0.753353 0.56907
742073877 25.7769 0.757811 0.551714
742173877 25.7858 0.762127 0.534796
742273877 25.7947 0.766303 0.5183
742373877 25.8036 0.770344 0.502228
742473877 25.8125 0.774254 0.486591
742573877 25.8214 0.778038 0.471375
742673877 25.8304 0.7817 0.456588
742773877 25.8393 0.785243 0.442223
742873877 25.8482 0.788672 0.428271
742973877 25.8571 0.79199 0.414724
743073877 25.866 0.795201 0.401577
743173877 25.8749 0.798308 0.388822
743273877 25.8838 0.801315 0.376449
743373877 25.8927 0.804225 0.364454
743473877 25.9017 0.80704 0.352822
743573877 25.9106 0.809765 0.341548
743673877 25.9195 0.812402 0.330621
743773877 25.9284 0.814953 0.320033
743873877 25.9373 0.817422 0.309774
743973877 25.9462 0.819811 0.299837
744073877 25.9551 0.822123 0.290212
744173877 25.9641 0.824361 0.280889
744273877 25.973 0.826526 0.271859
744373877 25.9819 0.828621 0.263118
744473877 25.9908 0.830648 0.254651
744573877 25.9997 0.83261 0.246452
744673877 26.0086 0.834508 0.23852
744773877 26.0175 0.836346 0.230835
744873877 26.0265 0.838123 0.223393
744973877 26.0354 0.839844 0.216195
745073877 26.0443 0.841508 0.209226
745173877 26.0532 0.843119 0.202476
745273877 26.0621 0.844678 0.19595
745373877 26.071 0.846187 0.189628
745473877 26.0799 0.847647 0.183506
745573877 26.0889 0.849059 0.177588
745673877 26.0978 0.850426 0.171853
745773877 26.1067 0.851749 0.166311
745873877 26.1156 0.853029 0.16094
745973877 26.1245 0.854268 0.155743
746073877 26.1334 0.855467 0.150716
746173877 26.1423 0.856627 0.145848
746273877 26.1512 0.857749 0.141138
746373877 26.1602 0.858835 0.136584
746473877 26.1691 0.859886 0.132169
746573877 26.178 0.860904 0.127904
746673877 26.1869 0.861888 0.123772
746773877 26.1958 0.86284 0.119772
746873877 26.2047 0.863762 0.115906
746973877 26.2136 0.864654 0.112159
747073877 26.2226 0.865517 0.108538
747173877 26.2315 0.866352 0.105031
747273877 26.2404 0.867161 0.101639
747373877 26.2493 0.867943 0.0983577
747473877 26.2582 0.8687 0.0951764
747573877 26.2671 0.869432 0.0921044
747673877 26.276 0.870141 0.0891291
747773877 26.285 0.870827 0.0862489
747873877 26.2939 0.87149 0.0834625
747973877 26.3028 0.872133 0.080766
748073877 26.3117 0.872754 0.0781578
748173877 26.3206 0.873356 0.0756306
748273877 26.3295 0.873938 0.0731885
748373877 26.3384 0.874501 0.070823
748473877 26.3473 0.875046 0.0685349
748573877 26.3563 0.875573 0.0663215
748673877 26.3652 0.876083 0.0641781
748773877 26.3741 0.876577 0.062107
748873877 26.383 0.877055 0.0600957
748973877 26.3919 0.877518 0.0581554
749073877 26.4008 0.877965 0.0562788
749173877 26.4097 0.878398 0.0544601
749273877 26.4187 0.878817 0.0526987
749373877 26.4276 0.879223 0.0509952
749473877 26.4365 0.879615 0.0493497
749573877 26.4454 0.879995 0.0477531
749673877 26.4543 0.880362 0.0462125
749773877 26.4632 0.880718 0.0447183
749873877 26.4721 0.881062 0.0432711
749973877 26.4811 0.881395 0.0418761
750073877 26.49 0.881717 0.0405212
750173877 26.4989 0.882029 0.0392141
750273877 26.5078 0.882331 0.0379477
750373877 26.5167 0.882623 0.0367189
750473877 26.5256 0.882905 0.0355346
750573877 26.5345 0.883179 0.0343866
750673877 26.5434 0.883443 0.0332756
750773877 26.5524 0.883699 0.0321997
750873877 26.5613 0.883947 0.0311582
750973877 26.5702 0.884187 0.0301508
751073877 26.5791 0.884419 0.0291805
751173877 26.588 0.884643 0.0282365
751273877 26.5969 0.884861 0.0273224
751373877 26.6058 0.885071 0.026441
751473877 26.6148 0.885274 0.0255855
751573877 26.6237 0.885471 0.0247595
751673877 26.6326 0.885662 0.0239611
751773877 26.6415 0.885846 0.0231854
751873877 26.6504 0.886025 0.0224351
751973877 26.6593 0.886197 0.0217094
752073877 26.6682 0.886364 0.0210129
752173877 26.6772 0.886526 0.0203288
752273877 26.6861 0.886682 0.0196743
752373877 26.695 0.886834 0.0190394
752473877 26.7039 0.88698 0.0184217
752573877 26.7128 0.887122 0.0178281
752673877 26.7217 0.887259 0.0172516
752773877 26.7306 0.887392 0.0166971
752873877 26.7395 0.88752 0.0161546
752973877 26.7485 0.887645 0.0156343
753073877 26.7574 0.887765 0.0151279
753173877 26.7663 0.887881 0.0146392
753273877 26.7752 0.887994 0.0141657
753373877 26.7841 0.888103 0.0137096
753473877 26.793 0.888209 0.013266
753573877 26.8019 0.888311 0.0128373
753673877 26.8109 0.888409 0.0124218
753773877 26.8198 0.888505 0.0120201
753873877 26.8287 0.888598 0.0116326
753973877 26.8376 0.888687 0.0112554
754073877 26.8465 0.888774 0.0108933
754173877 26.8554 0.888857 0.0105411
754273877 26.8643 0.888939 0.0101996
754373877 26.8733 0.889017 0.00987072
754473877 26.8822 0.889093 0.00955203
754573877 26.8911 0.889166 0.00924356
754673877 26.9 0.889238 0.00894335
754773877 26.9089 0.889306 0.00865773
754873877 26.9178 0.889373 0.0083748
754973877 26.9267 0.889437 0.00810383
755073877 26.9356 0.8895 0.00784201
755173877 26.9446 0.88956 0.00758986
755273877 26.9535 0.889619 0.00734541
755373877 26.9624 0.889675 0.00710758
755473877 26.9713 0.88973 0.0068776
755573877 26.9802 0.889783 0.00665503
755673877 26.9891 0.889834 0.00644163
755773877 26.998 0.889884 0.00623249
755873877 27.007 0.889931 0.00603226
755973877 27.0159 0.889978 0.00583576
756073877 27.0248 0.890023 0.0056472
756173877 27.0337 0.890066 0.00546564
756273877 27.0426 0.890108 0.0052869
756373877 27.0515 0.890149 0.00512001
756473877 27.0604 0.890188 0.00494926
756573877 27.0694 0.890226 0.00479234
756673877 27.0783 0.890263 0.00463717
756773877 27.0872 0.890299 0.00448679
756873877 27.0961 0.890334 0.00434335
756973877 27.105 0.890367 0.00420329
757073877 27.1139 0.890399 0.00406699
757173877 27.1228 0.890431 0.00393423
757273877 27.1318 0.890461 0.00380783
757373877 27.1407 0.89049 0.00368486
757473877 27.1496 0.890519 0.00356707
757573877 27.1585 0.890546 0.00344931
757673877 27.1674 0.890572 0.00333928
757773877 27.1763 0.890598 0.00323063
757873877 27.1852 0.890623 0.00312612
757973877 27.1941 0.890647 0.00302678
758073877 27.2031 0.89067 0.00292825
758173877 27.212 0.890693 0.00283225
758273877 27.2209 0.890715 0.00274395
758373877 27.2298 0.890736 0.00265284
758473877 27.2387 0.890756 0.00256544
758573877 27.2476 0.890776 0.00248575
758673877 27.2565 0.890795 0.00240451
758773877 27.2655 0.890814 0.00232574
758873877 27.2744 0.890831 0.00225098
758973877 27.2833 0.890849 0.00218116
759073877 27.2922 0.890866 0.00210862
759173877 27.3011 0.890882 0.00203951
759273877 27.31 0.890898 0.00197366
759373877 27.3189 0.890913 0.00191251
759473877 27.3279 0.890928 0.0018505
759573877 27.3368 0.890942 0.00178841
759673877 27.3457 0.890955 0.00173097
759773877 27.3546 0.890969 0.00167631
759873877 27.3635 0.890982 0.00162163
759973877 27.3724 0.890994 0.00156881
760073877 27.3813 0.891006 0.00152086
760188620 27.3902 0.876702 -0.310487
760303364 27.3992 0.874923 -0.11561
760418107 27.4081 0.872921 -0.149754
760532850 27.417 0.870667 -0.193078
760647594 27.4259 0.868128 -0.16992
760762337 27.4348 0.865273 -0.19041
760877081 27.4437 0.862056 -0.208424
760991824 27.4526 0.858439 -0.221014
761106567 27.4616 0.856156 -0.204699
761242083 27.4705 0.838925 -0.476411
761377599 27.4794 0.834675 -0.303927
761513114 27.4883 0.830177 -0.329246
761648630 27.4972 0.825432 -0.364924
761784146 27.5061 0.820452 -0.341396
761919661 27.515 0.815252 -0.35482
762055177 27.524 0.809853 -0.364883
762212904 27.5329 0.792488 -0.540527
762370630 27.5418 0.786683 -0.407056
762528356 27.5507 0.780684 -0.423202
762686083 27.5596 0.774497 -0.440762
762843809 27.5685 0.768131 -0.418665
763001536 27.5774 0.76159 -0.424326
763182824 27.5863 0.745702 -0.540046
763364112 27.5953 0.737683 -0.456343
763545400 27.6042 0.730832 -0.44965
763726688 27.6131 0.723851 -0.457784
763907976 27.622 0.716747 -0.438913
764089264 27.6309 0.709528 -0.436136
764295371 27.6398 0.694801 -0.511835
764501479 27.6487 0.686452 -0.447989
764707586 27.6577 0.679046 -0.438821
764913693 27.6666 0.671717 -0.438565
765119801 27.6755 0.664327 -0.420978
765351887 27.6844 0.650836 -0.469919
765583974 27.6933 0.642597 -0.421115
765816060 27.7022 0.634231 -0.418122
766048147 27.7111 0.626659 -0.408849
766307270 27.7201 0.614176 -0.432458
766566393 27.729 0.606067 -0.393091
766825517 27.7379 0.597861 -0.387774
767084640 27.7468 0.589553 -0.383487
767371750 27.7557 0.577701 -0.394288
767658860 27.7646 0.569589 -0.362022
767945971 27.7735 0.561508 -0.355309
768233081 27.7824 0.553364 -0.348816
768549019 27.7914 0.542222 -0.354706
768864957 27.8003 0.534241 -0.327858
769180894 27.8092 0.526289 -0.320772
769526386 27.8181 0.515364 -0.329887
769871877 27.827 0.507572 -0.301012
770217369 27.8359 0.49982 -0.294012
770593024 27.8448 0.48952 -0.299778
770968679 27.8538 0.481539 -0.276812
771344334 27.8627 0.473954 -0.268132
771750643 27.8716 0.46418 -0.271317
772156953 27.8805 0.456416 -0.251835
772594286 27.8894 0.447102 -0.251063
773031619 27.8983 0.439544 -0.236763
773500224 27.9072 0.430309 -0.234182
773968829 27.9162 0.422908 -0.219988
774437434 27.9251 0.415579 -0.211833
774937434 27.934 0.406789 -0.21045
775437434 27.9429 0.399615 -0.196437
775968829 27.9518 0.391198 -0.194277
776500224 27.9607 0.38421 -0.183167
777062891 27.9696 0.376128 -0.17938
777656581 27.9785 0.368321 -0.172082
778250272 27.9875 0.361498 -0.16239
778874617 27.9964 0.353816 -0.159222
779498962 28.0053 0.347194 -0.149938
780153471 28.0142 0.339819 -0.146057
780837533 28.0231 0.332662 -0.139963
781521595 28.032 0.326218 -0.132539
782234485 28.0409 0.31932 -0.128828
782975362 28.0499 0.312605 -0.122993
783716238 28.0588 0.306493 -0.116713
784484152 28.0677 0.300049 -0.113115
785278044 28.0766 0.293681 -0.108258
786096756 28.0855 0.287488 -0.103432
786939030 28.0944 0.28146 -0.0990918
787781303 28.1033 0.275866 -0.0943014
788645788 28.1123 0.270094 -0.0908977
789531044 28.1212 0.264478 -0.0869334
790435553 28.1301 0.258958 -0.0832897
791357717 28.139 0.253585 -0.0798443
792295870 28.1479 0.248368 -0.0764214
793248284 28.1568 0.2433 -0.0731914
794213172 28.1657 0.238378 -0.0701152
795188700 28.1747 0.233567 -0.0672634
796172992 28.1836 0.228899 -0.0644977
797164135 28.1925 0.224373 -0.0618841
798160193 28.2014 0.219995 -0.0594008
799159206 28.2103 0.215763 -0.0570358
800159206 28.2192 0.211677 -0.0547966
800159206 28.2281 4.89416e+06 6.52555e+06
